# OpenSignals Text File Format. Version 1
# {"00:07:80:0F:2F:DA": {"position": 0, "device": "biosignalsplux", "device name": "00:07:80:0F:2F:DA", "device connection": "BTH00:07:80:0F:2F:DA", "sampling rate": 1000, "resolution": [16], "firmware version": 776, "comments": "", "keywords": "", "mode": 0, "sync interval": 2, "date": "2023-5-16", "time": "9:18:0.561", "channels": [1], "sensor": ["ECG"], "label": ["CH1"], "column": ["nSeq", "DI", "CH1"], "special": [{"SpO2": [80, 40, 5, 4, 3, 3]}, {"SpO2": [80, 40, 5, 4, 3, 3]}, {"SpO2": [80, 40, 5, 4, 3, 3]}, {"SpO2": [80, 40, 5, 4, 3, 3]}, {"SpO2": [80, 40, 5, 4, 3, 3]}, {"SpO2": [80, 40, 5, 4, 3, 3]}, {"SpO2": [80, 40, 5, 4, 3, 3]}, {"SpO2": [80, 40, 5, 4, 3, 3]}], "digital IO": [0, 1], "sleeve color": ["red"]}}
# EndOfHeader
0	0	32648	
1	0	31872	
2	0	31496	
3	0	31552	
4	0	31824	
5	0	32168	
6	0	32641	
7	0	33184	
8	0	33732	
9	0	34080	
10	0	34084	
11	0	34040	
12	0	33892	
13	0	33712	
14	0	33488	
15	0	33104	
16	0	32536	
17	0	31956	
18	0	31480	
19	0	30978	
20	0	29946	
21	0	28740	
22	0	27594	
23	0	26328	
24	0	24716	
25	0	23160	
26	0	21324	
27	0	19168	
28	0	16784	
29	0	14336	
30	0	12037	
31	0	9740	
32	0	7270	
33	0	4713	
34	0	2836	
35	0	1936	
36	0	1528	
37	0	1389	
38	0	1376	
39	0	1424	
40	0	1513	
41	0	1608	
42	0	1732	
43	0	1846	
44	0	1968	
45	0	4406	
46	0	10840	
47	0	16498	
48	0	21834	
49	0	26924	
50	0	31752	
51	0	36512	
52	0	41200	
53	0	45608	
54	0	49624	
55	0	53116	
56	0	55856	
57	0	57848	
58	0	59584	
59	0	61252	
60	0	62176	
61	0	62560	
62	0	63000	
63	0	63248	
64	0	63192	
65	0	62436	
66	0	61064	
67	0	58928	
68	0	56456	
69	0	54028	
70	0	51908	
71	0	49652	
72	0	47640	
73	0	45884	
74	0	44456	
75	0	43208	
76	0	41976	
77	0	40788	
78	0	39732	
79	0	38600	
80	0	37560	
81	0	36676	
82	0	35868	
83	0	35080	
84	0	34368	
85	0	33844	
86	0	33380	
87	0	33316	
88	0	33296	
89	0	33324	
90	0	33280	
91	0	33316	
92	0	33640	
93	0	33796	
94	0	33572	
95	0	32980	
96	0	32440	
97	0	31816	
98	0	31372	
99	0	30920	
100	0	30704	
101	0	30468	
102	0	30300	
103	0	30304	
104	0	30550	
105	0	31196	
106	0	31736	
107	0	31968	
108	0	31692	
109	0	31388	
110	0	31180	
111	0	31008	
112	0	31052	
113	0	31380	
114	0	31702	
115	0	31912	
116	0	32200	
117	0	32578	
118	0	32676	
119	0	32613	
120	0	32652	
121	0	32384	
122	0	31948	
123	0	31744	
124	0	31624	
125	0	31724	
126	0	31676	
127	0	31508	
128	0	31280	
129	0	31194	
130	0	31136	
131	0	31212	
132	0	31232	
133	0	31300	
134	0	31412	
135	0	31588	
136	0	31980	
137	0	32428	
138	0	32588	
139	0	32548	
140	0	32148	
141	0	31640	
142	0	31348	
143	0	31104	
144	0	31181	
145	0	31372	
146	0	31352	
147	0	31236	
148	0	31344	
149	0	31312	
150	0	31002	
151	0	30512	
152	0	30292	
153	0	30420	
154	0	30740	
155	0	30824	
156	0	30664	
157	0	30556	
158	0	30524	
159	0	30548	
160	0	30584	
161	0	30492	
162	0	30316	
163	0	30024	
164	0	29868	
165	0	30048	
166	0	30140	
167	0	30056	
168	0	29934	
169	0	29744	
170	0	29485	
171	0	29472	
172	0	29536	
173	0	29816	
174	0	30000	
175	0	30180	
176	0	30280	
177	0	30172	
178	0	29852	
179	0	29686	
180	0	29584	
181	0	29632	
182	0	29920	
183	0	29944	
184	0	29968	
185	0	30248	
186	0	30336	
187	0	30204	
188	0	29852	
189	0	29608	
190	0	29636	
191	0	29700	
192	0	29616	
193	0	29704	
194	0	29693	
195	0	29572	
196	0	29374	
197	0	29108	
198	0	28768	
199	0	28540	
200	0	28752	
201	0	29122	
202	0	29268	
203	0	29416	
204	0	29608	
205	0	29672	
206	0	29700	
207	0	29904	
208	0	29980	
209	0	29928	
210	0	30012	
211	0	30000	
212	0	29748	
213	0	29548	
214	0	29640	
215	0	29722	
216	0	29802	
217	0	29848	
218	0	29820	
219	0	29736	
220	0	29688	
221	0	29556	
222	0	29448	
223	0	29260	
224	0	29268	
225	0	29264	
226	0	29404	
227	0	29656	
228	0	29956	
229	0	30056	
230	0	29864	
231	0	30041	
232	0	30184	
233	0	30216	
234	0	30432	
235	0	30840	
236	0	31212	
237	0	31456	
238	0	31592	
239	0	31704	
240	0	31448	
241	0	31084	
242	0	30848	
243	0	30656	
244	0	30576	
245	0	30325	
246	0	30300	
247	0	30468	
248	0	30796	
249	0	31100	
250	0	31188	
251	0	31144	
252	0	31252	
253	0	31732	
254	0	32396	
255	0	33004	
256	0	33016	
257	0	32588	
258	0	32008	
259	0	31946	
260	0	31816	
261	0	31622	
262	0	31512	
263	0	31288	
264	0	31316	
265	0	31056	
266	0	30916	
267	0	31008	
268	0	31252	
269	0	31296	
270	0	31364	
271	0	31520	
272	0	31576	
273	0	31596	
274	0	31960	
275	0	32388	
276	0	32684	
277	0	32880	
278	0	33108	
279	0	33288	
280	0	33552	
281	0	33832	
282	0	33832	
283	0	33740	
284	0	33524	
285	0	33332	
286	0	33256	
287	0	33412	
288	0	33480	
289	0	33400	
290	0	33464	
291	0	33528	
292	0	33616	
293	0	33660	
294	0	33632	
295	0	33260	
296	0	32952	
297	0	32896	
298	0	32968	
299	0	33116	
300	0	33316	
301	0	32932	
302	0	32386	
303	0	32368	
304	0	32388	
305	0	32276	
306	0	32064	
307	0	32004	
308	0	31996	
309	0	32048	
310	0	32312	
311	0	32416	
312	0	32340	
313	0	32200	
314	0	31932	
315	0	31568	
316	0	31376	
317	0	31492	
318	0	31700	
319	0	31968	
320	0	32020	
321	0	31912	
322	0	31928	
323	0	31944	
324	0	31764	
325	0	31612	
326	0	31552	
327	0	31436	
328	0	31520	
329	0	31704	
330	0	31904	
331	0	32132	
332	0	32446	
333	0	32688	
334	0	32664	
335	0	32588	
336	0	32640	
337	0	32584	
338	0	32480	
339	0	32320	
340	0	32336	
341	0	32348	
342	0	32388	
343	0	32416	
344	0	32432	
345	0	32292	
346	0	31960	
347	0	31840	
348	0	31924	
349	0	31972	
350	0	31784	
351	0	31712	
352	0	31572	
353	0	31472	
354	0	31624	
355	0	31880	
356	0	31796	
357	0	31764	
358	0	31916	
359	0	32200	
360	0	32644	
361	0	32824	
362	0	32840	
363	0	32878	
364	0	32660	
365	0	32240	
366	0	32004	
367	0	31680	
368	0	31520	
369	0	31376	
370	0	31252	
371	0	31076	
372	0	30928	
373	0	30896	
374	0	30956	
375	0	30988	
376	0	30964	
377	0	30904	
378	0	30988	
379	0	31280	
380	0	31728	
381	0	31924	
382	0	32072	
383	0	32188	
384	0	32238	
385	0	32306	
386	0	32228	
387	0	32056	
388	0	31864	
389	0	31760	
390	0	31762	
391	0	31690	
392	0	31352	
393	0	31056	
394	0	31004	
395	0	30708	
396	0	30442	
397	0	30276	
398	0	30368	
399	0	30437	
400	0	30668	
401	0	30954	
402	0	31408	
403	0	31704	
404	0	31732	
405	0	31645	
406	0	31620	
407	0	31572	
408	0	31636	
409	0	31716	
410	0	31752	
411	0	31696	
412	0	31480	
413	0	31402	
414	0	31320	
415	0	31352	
416	0	31476	
417	0	31584	
418	0	31664	
419	0	31540	
420	0	31480	
421	0	31648	
422	0	31740	
423	0	31628	
424	0	31424	
425	0	31104	
426	0	30840	
427	0	30636	
428	0	30444	
429	0	30332	
430	0	30340	
431	0	30476	
432	0	30740	
433	0	30760	
434	0	30836	
435	0	30840	
436	0	31036	
437	0	31296	
438	0	31556	
439	0	31764	
440	0	31944	
441	0	32248	
442	0	32720	
443	0	32920	
444	0	32728	
445	0	32485	
446	0	32312	
447	0	32240	
448	0	32296	
449	0	32453	
450	0	32780	
451	0	32912	
452	0	32636	
453	0	32296	
454	0	32128	
455	0	32008	
456	0	31876	
457	0	31956	
458	0	32056	
459	0	32304	
460	0	32740	
461	0	33032	
462	0	33180	
463	0	33328	
464	0	33272	
465	0	33108	
466	0	32852	
467	0	32578	
468	0	32410	
469	0	32380	
470	0	32308	
471	0	32580	
472	0	32806	
473	0	32776	
474	0	32620	
475	0	32592	
476	0	32698	
477	0	32728	
478	0	32632	
479	0	32684	
480	0	32696	
481	0	32710	
482	0	32806	
483	0	32912	
484	0	32856	
485	0	32788	
486	0	32688	
487	0	32584	
488	0	32368	
489	0	32112	
490	0	31936	
491	0	31820	
492	0	31736	
493	0	31656	
494	0	31796	
495	0	32042	
496	0	32240	
497	0	32341	
498	0	32324	
499	0	32208	
500	0	32240	
501	0	32416	
502	0	32192	
503	0	31940	
504	0	31940	
505	0	32028	
506	0	32228	
507	0	32208	
508	0	32064	
509	0	32024	
510	0	32116	
511	0	32160	
512	0	32288	
513	0	32588	
514	0	32696	
515	0	32550	
516	0	32100	
517	0	31688	
518	0	31480	
519	0	31888	
520	0	32428	
521	0	32668	
522	0	32801	
523	0	32696	
524	0	32572	
525	0	32748	
526	0	32912	
527	0	32776	
528	0	32496	
529	0	32074	
530	0	31712	
531	0	31565	
532	0	31388	
533	0	31272	
534	0	31260	
535	0	31332	
536	0	31496	
537	0	31680	
538	0	31892	
539	0	32168	
540	0	32376	
541	0	32252	
542	0	32184	
543	0	32244	
544	0	32308	
545	0	32397	
546	0	32525	
547	0	32624	
548	0	32508	
549	0	32384	
550	0	32364	
551	0	32412	
552	0	32484	
553	0	32424	
554	0	32560	
555	0	32718	
556	0	32892	
557	0	32884	
558	0	32896	
559	0	32896	
560	0	32796	
561	0	32880	
562	0	33040	
563	0	33124	
564	0	33064	
565	0	32952	
566	0	32892	
567	0	32804	
568	0	32464	
569	0	32032	
570	0	31860	
571	0	31848	
572	0	31680	
573	0	31564	
574	0	31632	
575	0	31884	
576	0	32072	
577	0	31952	
578	0	31600	
579	0	31220	
580	0	31260	
581	0	31730	
582	0	32380	
583	0	32936	
584	0	33284	
585	0	33676	
586	0	33980	
587	0	34426	
588	0	34540	
589	0	34192	
590	0	33856	
591	0	33672	
592	0	33724	
593	0	33680	
594	0	33504	
595	0	33384	
596	0	33184	
597	0	33144	
598	0	32968	
599	0	32752	
600	0	32728	
601	0	32844	
602	0	32788	
603	0	32816	
604	0	32932	
605	0	33084	
606	0	33074	
607	0	33034	
608	0	33140	
609	0	33352	
610	0	33364	
611	0	33412	
612	0	33436	
613	0	33340	
614	0	33204	
615	0	33100	
616	0	32976	
617	0	32860	
618	0	32520	
619	0	32412	
620	0	32488	
621	0	32468	
622	0	32420	
623	0	32364	
624	0	32396	
625	0	32584	
626	0	32632	
627	0	32464	
628	0	32388	
629	0	32280	
630	0	32212	
631	0	32228	
632	0	32128	
633	0	32032	
634	0	32072	
635	0	32256	
636	0	32456	
637	0	32552	
638	0	32500	
639	0	32436	
640	0	32184	
641	0	31996	
642	0	31928	
643	0	31770	
644	0	31708	
645	0	31548	
646	0	31200	
647	0	31112	
648	0	31020	
649	0	30960	
650	0	30876	
651	0	30840	
652	0	30988	
653	0	31240	
654	0	31152	
655	0	31294	
656	0	31364	
657	0	31280	
658	0	31296	
659	0	31284	
660	0	31112	
661	0	30868	
662	0	30736	
663	0	30328	
664	0	30146	
665	0	30008	
666	0	29760	
667	0	29784	
668	0	30008	
669	0	30104	
670	0	30044	
671	0	29896	
672	0	29724	
673	0	29704	
674	0	29772	
675	0	29832	
676	0	29704	
677	0	29380	
678	0	28900	
679	0	28340	
680	0	27952	
681	0	27688	
682	0	27450	
683	0	27124	
684	0	26972	
685	0	26796	
686	0	26656	
687	0	26688	
688	0	26808	
689	0	27020	
690	0	27316	
691	0	27660	
692	0	28088	
693	0	28384	
694	0	28573	
695	0	28744	
696	0	28782	
697	0	28836	
698	0	29136	
699	0	29372	
700	0	29408	
701	0	29425	
702	0	29400	
703	0	29396	
704	0	29520	
705	0	29704	
706	0	29780	
707	0	29856	
708	0	29736	
709	0	29752	
710	0	29860	
711	0	30140	
712	0	30260	
713	0	30044	
714	0	29728	
715	0	29488	
716	0	29500	
717	0	29552	
718	0	29572	
719	0	29666	
720	0	29866	
721	0	30244	
722	0	30772	
723	0	31344	
724	0	31824	
725	0	32316	
726	0	32944	
727	0	33748	
728	0	34232	
729	0	34544	
730	0	34824	
731	0	35128	
732	0	35496	
733	0	35780	
734	0	35728	
735	0	35704	
736	0	35800	
737	0	35888	
738	0	35936	
739	0	35752	
740	0	35560	
741	0	35728	
742	0	35960	
743	0	35972	
744	0	35748	
745	0	35536	
746	0	35440	
747	0	35420	
748	0	35456	
749	0	35412	
750	0	35352	
751	0	35372	
752	0	35656	
753	0	35906	
754	0	35916	
755	0	35632	
756	0	35224	
757	0	34756	
758	0	34464	
759	0	34176	
760	0	33964	
761	0	33772	
762	0	33788	
763	0	33644	
764	0	33496	
765	0	33456	
766	0	33568	
767	0	33720	
768	0	33856	
769	0	33880	
770	0	33736	
771	0	33652	
772	0	33524	
773	0	33452	
774	0	33384	
775	0	33260	
776	0	32888	
777	0	31884	
778	0	30712	
779	0	29474	
780	0	28128	
781	0	26756	
782	0	25092	
783	0	23444	
784	0	21816	
785	0	20022	
786	0	18000	
787	0	15802	
788	0	13724	
789	0	11520	
790	0	9114	
791	0	6788	
792	0	5385	
793	0	4713	
794	0	4426	
795	0	4336	
796	0	4337	
797	0	4386	
798	0	4463	
799	0	4554	
800	0	4650	
801	0	4746	
802	0	4846	
803	0	4957	
804	0	9050	
805	0	15156	
806	0	20628	
807	0	25724	
808	0	30512	
809	0	35020	
810	0	39432	
811	0	43944	
812	0	48136	
813	0	51744	
814	0	55080	
815	0	57752	
816	0	59736	
817	0	61104	
818	0	62032	
819	0	62552	
820	0	62700	
821	0	62696	
822	0	62424	
823	0	61844	
824	0	60808	
825	0	59280	
826	0	57528	
827	0	55708	
828	0	53656	
829	0	51432	
830	0	49200	
831	0	47176	
832	0	45352	
833	0	43544	
834	0	42244	
835	0	41336	
836	0	40676	
837	0	40300	
838	0	39804	
839	0	39048	
840	0	38288	
841	0	37668	
842	0	37048	
843	0	36600	
844	0	36392	
845	0	36160	
846	0	35840	
847	0	35668	
848	0	35474	
849	0	35180	
850	0	34740	
851	0	34412	
852	0	34216	
853	0	33952	
854	0	33652	
855	0	33306	
856	0	32980	
857	0	32728	
858	0	32660	
859	0	32640	
860	0	32796	
861	0	32876	
862	0	32788	
863	0	32416	
864	0	32228	
865	0	32192	
866	0	32204	
867	0	32232	
868	0	32372	
869	0	32608	
870	0	32988	
871	0	33240	
872	0	33216	
873	0	33240	
874	0	33216	
875	0	33008	
876	0	32764	
877	0	32640	
878	0	32712	
879	0	32493	
880	0	32180	
881	0	32168	
882	0	32052	
883	0	31872	
884	0	31672	
885	0	31588	
886	0	31552	
887	0	31408	
888	0	31172	
889	0	31076	
890	0	31056	
891	0	31052	
892	0	30924	
893	0	30944	
894	0	31056	
895	0	30988	
896	0	30904	
897	0	31024	
898	0	31040	
899	0	31000	
900	0	30824	
901	0	30632	
902	0	30276	
903	0	30032	
904	0	30030	
905	0	30124	
906	0	30128	
907	0	30164	
908	0	30252	
909	0	30332	
910	0	30564	
911	0	30848	
912	0	30976	
913	0	31112	
914	0	31080	
915	0	31156	
916	0	31432	
917	0	31744	
918	0	32112	
919	0	32296	
920	0	32496	
921	0	32512	
922	0	32560	
923	0	32576	
924	0	32132	
925	0	31824	
926	0	31720	
927	0	31736	
928	0	31752	
929	0	31620	
930	0	31520	
931	0	31456	
932	0	31296	
933	0	31180	
934	0	31102	
935	0	31020	
936	0	31032	
937	0	31148	
938	0	31340	
939	0	31404	
940	0	31416	
941	0	31364	
942	0	31416	
943	0	31756	
944	0	32136	
945	0	32408	
946	0	32504	
947	0	32444	
948	0	32240	
949	0	31920	
950	0	31568	
951	0	31258	
952	0	31020	
953	0	31040	
954	0	31084	
955	0	31216	
956	0	31512	
957	0	31656	
958	0	31432	
959	0	31176	
960	0	30930	
961	0	30704	
962	0	30488	
963	0	30650	
964	0	31040	
965	0	31252	
966	0	31236	
967	0	31070	
968	0	30906	
969	0	30653	
970	0	30416	
971	0	30608	
972	0	30948	
973	0	31088	
974	0	31136	
975	0	31184	
976	0	31320	
977	0	31604	
978	0	31632	
979	0	31536	
980	0	31580	
981	0	31520	
982	0	31296	
983	0	31124	
984	0	31188	
985	0	31208	
986	0	31132	
987	0	30928	
988	0	30868	
989	0	30776	
990	0	30718	
991	0	30696	
992	0	30824	
993	0	31216	
994	0	31720	
995	0	31960	
996	0	32032	
997	0	31840	
998	0	31740	
999	0	31816	
1000	0	31976	
1001	0	32029	
1002	0	32132	
1003	0	32292	
1004	0	32320	
1005	0	32320	
1006	0	32260	
1007	0	32360	
1008	0	32420	
1009	0	32296	
1010	0	32428	
1011	0	32672	
1012	0	32788	
1013	0	32770	
1014	0	32816	
1015	0	32900	
1016	0	32984	
1017	0	32976	
1018	0	32892	
1019	0	32756	
1020	0	32744	
1021	0	32800	
1022	0	32748	
1023	0	32936	
1024	0	33096	
1025	0	33112	
1026	0	33168	
1027	0	33496	
1028	0	33728	
1029	0	33880	
1030	0	34064	
1031	0	34452	
1032	0	34724	
1033	0	34728	
1034	0	34676	
1035	0	34564	
1036	0	34500	
1037	0	34516	
1038	0	34576	
1039	0	34676	
1040	0	34796	
1041	0	34828	
1042	0	34784	
1043	0	34644	
1044	0	34408	
1045	0	34408	
1046	0	34612	
1047	0	34680	
1048	0	34736	
1049	0	35024	
1050	0	35280	
1051	0	35404	
1052	0	35456	
1053	0	35336	
1054	0	35032	
1055	0	34884	
1056	0	34676	
1057	0	34424	
1058	0	34172	
1059	0	34108	
1060	0	34308	
1061	0	34476	
1062	0	34496	
1063	0	34504	
1064	0	34488	
1065	0	34362	
1066	0	34240	
1067	0	34392	
1068	0	34636	
1069	0	34696	
1070	0	34660	
1071	0	34500	
1072	0	34212	
1073	0	33704	
1074	0	33292	
1075	0	33380	
1076	0	33592	
1077	0	33944	
1078	0	34328	
1079	0	34612	
1080	0	34924	
1081	0	35256	
1082	0	35456	
1083	0	35444	
1084	0	35328	
1085	0	35212	
1086	0	35248	
1087	0	35352	
1088	0	35424	
1089	0	35578	
1090	0	36056	
1091	0	36428	
1092	0	36632	
1093	0	36752	
1094	0	37064	
1095	0	36936	
1096	0	36720	
1097	0	36760	
1098	0	36688	
1099	0	36424	
1100	0	36208	
1101	0	36176	
1102	0	36032	
1103	0	35872	
1104	0	35888	
1105	0	36096	
1106	0	36072	
1107	0	35804	
1108	0	35616	
1109	0	35480	
1110	0	35324	
1111	0	35412	
1112	0	35488	
1113	0	35530	
1114	0	35516	
1115	0	35412	
1116	0	35180	
1117	0	35072	
1118	0	35036	
1119	0	35108	
1120	0	35036	
1121	0	34900	
1122	0	34956	
1123	0	35096	
1124	0	35264	
1125	0	35344	
1126	0	35192	
1127	0	34920	
1128	0	34832	
1129	0	34692	
1130	0	34704	
1131	0	34874	
1132	0	35076	
1133	0	35148	
1134	0	35280	
1135	0	35488	
1136	0	35428	
1137	0	35204	
1138	0	35208	
1139	0	35148	
1140	0	35016	
1141	0	34864	
1142	0	34820	
1143	0	34724	
1144	0	34524	
1145	0	34324	
1146	0	34284	
1147	0	34232	
1148	0	34080	
1149	0	33936	
1150	0	33916	
1151	0	33960	
1152	0	34284	
1153	0	34548	
1154	0	34664	
1155	0	34640	
1156	0	34592	
1157	0	34492	
1158	0	34408	
1159	0	34124	
1160	0	33948	
1161	0	33956	
1162	0	33776	
1163	0	33504	
1164	0	33536	
1165	0	33580	
1166	0	33696	
1167	0	33996	
1168	0	34196	
1169	0	34308	
1170	0	34536	
1171	0	34920	
1172	0	35408	
1173	0	35704	
1174	0	35884	
1175	0	35868	
1176	0	35712	
1177	0	35676	
1178	0	35528	
1179	0	35564	
1180	0	35532	
1181	0	35412	
1182	0	35200	
1183	0	34940	
1184	0	34760	
1185	0	34776	
1186	0	34700	
1187	0	34432	
1188	0	34272	
1189	0	34252	
1190	0	34272	
1191	0	34252	
1192	0	34312	
1193	0	34368	
1194	0	34520	
1195	0	34856	
1196	0	34988	
1197	0	34996	
1198	0	34936	
1199	0	34792	
1200	0	34752	
1201	0	34856	
1202	0	34792	
1203	0	34452	
1204	0	34288	
1205	0	34444	
1206	0	34404	
1207	0	34372	
1208	0	34176	
1209	0	34040	
1210	0	34216	
1211	0	34376	
1212	0	34464	
1213	0	34672	
1214	0	34832	
1215	0	34784	
1216	0	34640	
1217	0	34496	
1218	0	34392	
1219	0	34172	
1220	0	34024	
1221	0	33900	
1222	0	33768	
1223	0	33742	
1224	0	33748	
1225	0	33760	
1226	0	33820	
1227	0	33824	
1228	0	33948	
1229	0	34280	
1230	0	34789	
1231	0	35172	
1232	0	35488	
1233	0	35712	
1234	0	35896	
1235	0	35792	
1236	0	35708	
1237	0	35600	
1238	0	35580	
1239	0	35472	
1240	0	35032	
1241	0	34648	
1242	0	34440	
1243	0	34504	
1244	0	34720	
1245	0	34864	
1246	0	34960	
1247	0	34976	
1248	0	34752	
1249	0	34808	
1250	0	35080	
1251	0	35340	
1252	0	35536	
1253	0	35616	
1254	0	35704	
1255	0	35708	
1256	0	35532	
1257	0	35124	
1258	0	34776	
1259	0	34680	
1260	0	34736	
1261	0	34852	
1262	0	35092	
1263	0	35352	
1264	0	35572	
1265	0	35472	
1266	0	35220	
1267	0	35208	
1268	0	35124	
1269	0	34968	
1270	0	34784	
1271	0	34960	
1272	0	35304	
1273	0	35352	
1274	0	35340	
1275	0	35324	
1276	0	35184	
1277	0	35060	
1278	0	34872	
1279	0	34844	
1280	0	34756	
1281	0	34688	
1282	0	34905	
1283	0	35292	
1284	0	35580	
1285	0	35564	
1286	0	35504	
1287	0	35384	
1288	0	35152	
1289	0	34920	
1290	0	34944	
1291	0	34840	
1292	0	34748	
1293	0	34760	
1294	0	34756	
1295	0	34756	
1296	0	34788	
1297	0	34636	
1298	0	34524	
1299	0	34336	
1300	0	34136	
1301	0	34284	
1302	0	34472	
1303	0	34680	
1304	0	34916	
1305	0	34892	
1306	0	34832	
1307	0	34848	
1308	0	34740	
1309	0	34624	
1310	0	34488	
1311	0	34520	
1312	0	34728	
1313	0	34918	
1314	0	35152	
1315	0	35232	
1316	0	35064	
1317	0	34524	
1318	0	33968	
1319	0	33604	
1320	0	33636	
1321	0	33688	
1322	0	33552	
1323	0	33380	
1324	0	33312	
1325	0	33232	
1326	0	33252	
1327	0	33568	
1328	0	34240	
1329	0	34916	
1330	0	35480	
1331	0	35708	
1332	0	35716	
1333	0	35576	
1334	0	35388	
1335	0	35280	
1336	0	35212	
1337	0	35416	
1338	0	35664	
1339	0	35724	
1340	0	35496	
1341	0	35352	
1342	0	35256	
1343	0	35088	
1344	0	34752	
1345	0	34608	
1346	0	34752	
1347	0	34872	
1348	0	34872	
1349	0	34804	
1350	0	34732	
1351	0	34728	
1352	0	34824	
1353	0	34852	
1354	0	34684	
1355	0	34448	
1356	0	34512	
1357	0	34816	
1358	0	34972	
1359	0	35132	
1360	0	35112	
1361	0	34916	
1362	0	34720	
1363	0	34400	
1364	0	34212	
1365	0	34076	
1366	0	33992	
1367	0	34216	
1368	0	34524	
1369	0	34624	
1370	0	34716	
1371	0	34696	
1372	0	34784	
1373	0	34916	
1374	0	34844	
1375	0	34448	
1376	0	34236	
1377	0	34372	
1378	0	34636	
1379	0	35022	
1380	0	35272	
1381	0	35488	
1382	0	35440	
1383	0	35264	
1384	0	35188	
1385	0	35037	
1386	0	34720	
1387	0	34680	
1388	0	34732	
1389	0	34624	
1390	0	34512	
1391	0	34420	
1392	0	34304	
1393	0	34208	
1394	0	34040	
1395	0	33916	
1396	0	33740	
1397	0	33312	
1398	0	32832	
1399	0	32184	
1400	0	31700	
1401	0	31400	
1402	0	31316	
1403	0	31472	
1404	0	31710	
1405	0	31912	
1406	0	32108	
1407	0	32084	
1408	0	32140	
1409	0	32012	
1410	0	31840	
1411	0	31720	
1412	0	31840	
1413	0	32048	
1414	0	32308	
1415	0	32540	
1416	0	32832	
1417	0	33128	
1418	0	33000	
1419	0	32597	
1420	0	32164	
1421	0	31940	
1422	0	31940	
1423	0	31600	
1424	0	31100	
1425	0	30828	
1426	0	30540	
1427	0	30104	
1428	0	29724	
1429	0	29304	
1430	0	28844	
1431	0	28424	
1432	0	28186	
1433	0	27952	
1434	0	27828	
1435	0	27884	
1436	0	27908	
1437	0	27892	
1438	0	28040	
1439	0	28352	
1440	0	28524	
1441	0	28684	
1442	0	28884	
1443	0	29260	
1444	0	29968	
1445	0	30640	
1446	0	31072	
1447	0	31285	
1448	0	31368	
1449	0	31468	
1450	0	31624	
1451	0	31584	
1452	0	31572	
1453	0	31770	
1454	0	31912	
1455	0	31936	
1456	0	31644	
1457	0	31396	
1458	0	31232	
1459	0	31052	
1460	0	30844	
1461	0	30832	
1462	0	30868	
1463	0	31072	
1464	0	31284	
1465	0	31468	
1466	0	31668	
1467	0	31888	
1468	0	32140	
1469	0	32730	
1470	0	33368	
1471	0	33984	
1472	0	34672	
1473	0	35188	
1474	0	35400	
1475	0	35572	
1476	0	35748	
1477	0	35940	
1478	0	36328	
1479	0	36740	
1480	0	36968	
1481	0	37124	
1482	0	37360	
1483	0	37628	
1484	0	37824	
1485	0	37876	
1486	0	37768	
1487	0	37504	
1488	0	37280	
1489	0	36980	
1490	0	36648	
1491	0	36384	
1492	0	36224	
1493	0	36228	
1494	0	36332	
1495	0	36188	
1496	0	35948	
1497	0	36048	
1498	0	36144	
1499	0	36216	
1500	0	36312	
1501	0	36412	
1502	0	36564	
1503	0	36460	
1504	0	36504	
1505	0	36656	
1506	0	36672	
1507	0	36740	
1508	0	36864	
1509	0	37000	
1510	0	37064	
1511	0	37040	
1512	0	37152	
1513	0	37056	
1514	0	36888	
1515	0	36816	
1516	0	36632	
1517	0	36332	
1518	0	36052	
1519	0	35944	
1520	0	35824	
1521	0	35728	
1522	0	35568	
1523	0	35320	
1524	0	34756	
1525	0	34136	
1526	0	33604	
1527	0	33144	
1528	0	32488	
1529	0	31548	
1530	0	30556	
1531	0	29216	
1532	0	27652	
1533	0	25728	
1534	0	23896	
1535	0	22216	
1536	0	20493	
1537	0	18477	
1538	0	16496	
1539	0	14694	
1540	0	12828	
1541	0	10752	
1542	0	8364	
1543	0	5750	
1544	0	3568	
1545	0	2495	
1546	0	2012	
1547	0	1820	
1548	0	1785	
1549	0	1838	
1550	0	1917	
1551	0	2017	
1552	0	2125	
1553	0	2239	
1554	0	5776	
1555	0	12456	
1556	0	18352	
1557	0	23778	
1558	0	28856	
1559	0	33288	
1560	0	37656	
1561	0	41856	
1562	0	45940	
1563	0	49668	
1564	0	53192	
1565	0	56344	
1566	0	58928	
1567	0	61128	
1568	0	63020	
1569	0	64428	
1570	0	65080	
1571	0	65088	
1572	0	64616	
1573	0	63476	
1574	0	62032	
1575	0	59940	
1576	0	57056	
1577	0	53952	
1578	0	50736	
1579	0	47776	
1580	0	45416	
1581	0	43736	
1582	0	42720	
1583	0	42176	
1584	0	41852	
1585	0	41592	
1586	0	41388	
1587	0	41100	
1588	0	40608	
1589	0	40100	
1590	0	39664	
1591	0	39076	
1592	0	38512	
1593	0	38168	
1594	0	38176	
1595	0	38424	
1596	0	38512	
1597	0	38472	
1598	0	38348	
1599	0	38076	
1600	0	37776	
1601	0	37212	
1602	0	36648	
1603	0	36292	
1604	0	35912	
1605	0	35472	
1606	0	35068	
1607	0	34852	
1608	0	34720	
1609	0	34550	
1610	0	34472	
1611	0	34252	
1612	0	34016	
1613	0	33833	
1614	0	33525	
1615	0	33300	
1616	0	33200	
1617	0	33176	
1618	0	32976	
1619	0	32768	
1620	0	32828	
1621	0	32940	
1622	0	33092	
1623	0	33352	
1624	0	33456	
1625	0	33588	
1626	0	33488	
1627	0	33164	
1628	0	32876	
1629	0	32704	
1630	0	32720	
1631	0	32832	
1632	0	32876	
1633	0	32664	
1634	0	32536	
1635	0	32504	
1636	0	32316	
1637	0	31968	
1638	0	31588	
1639	0	31216	
1640	0	30868	
1641	0	30548	
1642	0	30332	
1643	0	30028	
1644	0	29800	
1645	0	29980	
1646	0	30180	
1647	0	30328	
1648	0	30528	
1649	0	30692	
1650	0	30820	
1651	0	30908	
1652	0	31073	
1653	0	31168	
1654	0	31308	
1655	0	31552	
1656	0	31524	
1657	0	31316	
1658	0	31174	
1659	0	30792	
1660	0	30288	
1661	0	29866	
1662	0	29698	
1663	0	29500	
1664	0	29376	
1665	0	29360	
1666	0	29352	
1667	0	29556	
1668	0	29928	
1669	0	30112	
1670	0	30184	
1671	0	30284	
1672	0	30360	
1673	0	30362	
1674	0	30260	
1675	0	30156	
1676	0	30028	
1677	0	29836	
1678	0	29632	
1679	0	29574	
1680	0	29524	
1681	0	29704	
1682	0	29892	
1683	0	29794	
1684	0	29700	
1685	0	29624	
1686	0	29476	
1687	0	29332	
1688	0	28912	
1689	0	28338	
1690	0	27908	
1691	0	27748	
1692	0	27574	
1693	0	27496	
1694	0	27624	
1695	0	27762	
1696	0	27852	
1697	0	27936	
1698	0	28012	
1699	0	28156	
1700	0	28304	
1701	0	28312	
1702	0	28388	
1703	0	28436	
1704	0	28480	
1705	0	28804	
1706	0	29112	
1707	0	29508	
1708	0	29796	
1709	0	29928	
1710	0	29804	
1711	0	29520	
1712	0	29192	
1713	0	28972	
1714	0	28704	
1715	0	28234	
1716	0	27474	
1717	0	26620	
1718	0	26040	
1719	0	25788	
1720	0	25624	
1721	0	25352	
1722	0	25090	
1723	0	24688	
1724	0	24320	
1725	0	24258	
1726	0	24544	
1727	0	24940	
1728	0	25648	
1729	0	26544	
1730	0	27224	
1731	0	27872	
1732	0	28514	
1733	0	29120	
1734	0	29596	
1735	0	29828	
1736	0	29886	
1737	0	29944	
1738	0	30208	
1739	0	30568	
1740	0	30824	
1741	0	31048	
1742	0	31264	
1743	0	31396	
1744	0	31412	
1745	0	31492	
1746	0	31504	
1747	0	31240	
1748	0	31112	
1749	0	30912	
1750	0	30504	
1751	0	29772	
1752	0	28942	
1753	0	28172	
1754	0	27496	
1755	0	27196	
1756	0	27316	
1757	0	28002	
1758	0	28628	
1759	0	28874	
1760	0	28992	
1761	0	28864	
1762	0	28876	
1763	0	29004	
1764	0	29016	
1765	0	28908	
1766	0	28644	
1767	0	28500	
1768	0	28584	
1769	0	28900	
1770	0	29204	
1771	0	29512	
1772	0	29764	
1773	0	30096	
1774	0	30244	
1775	0	30160	
1776	0	30104	
1777	0	30172	
1778	0	30324	
1779	0	30468	
1780	0	30716	
1781	0	31252	
1782	0	31736	
1783	0	31848	
1784	0	31788	
1785	0	31748	
1786	0	31680	
1787	0	31604	
1788	0	31296	
1789	0	30922	
1790	0	30588	
1791	0	30424	
1792	0	30312	
1793	0	30424	
1794	0	30456	
1795	0	30424	
1796	0	30348	
1797	0	30420	
1798	0	30744	
1799	0	30980	
1800	0	31208	
1801	0	31252	
1802	0	31180	
1803	0	31320	
1804	0	31680	
1805	0	31796	
1806	0	31804	
1807	0	31661	
1808	0	31640	
1809	0	31556	
1810	0	31444	
1811	0	31380	
1812	0	31344	
1813	0	31224	
1814	0	30960	
1815	0	30616	
1816	0	30384	
1817	0	30280	
1818	0	30205	
1819	0	30464	
1820	0	30864	
1821	0	31404	
1822	0	31672	
1823	0	31568	
1824	0	31508	
1825	0	31580	
1826	0	31700	
1827	0	31768	
1828	0	31912	
1829	0	32212	
1830	0	32536	
1831	0	32920	
1832	0	33160	
1833	0	33240	
1834	0	33452	
1835	0	33696	
1836	0	33810	
1837	0	33762	
1838	0	33865	
1839	0	33872	
1840	0	33920	
1841	0	33872	
1842	0	33612	
1843	0	33268	
1844	0	32932	
1845	0	32704	
1846	0	32608	
1847	0	32672	
1848	0	32976	
1849	0	33292	
1850	0	33016	
1851	0	32340	
1852	0	31764	
1853	0	31532	
1854	0	31504	
1855	0	31808	
1856	0	32584	
1857	0	33416	
1858	0	34140	
1859	0	34640	
1860	0	35120	
1861	0	35344	
1862	0	35340	
1863	0	35128	
1864	0	34848	
1865	0	34388	
1866	0	34058	
1867	0	33868	
1868	0	34030	
1869	0	34260	
1870	0	34008	
1871	0	33424	
1872	0	32760	
1873	0	32208	
1874	0	31928	
1875	0	32088	
1876	0	32428	
1877	0	32864	
1878	0	33324	
1879	0	33850	
1880	0	34024	
1881	0	34228	
1882	0	34456	
1883	0	34524	
1884	0	34584	
1885	0	34712	
1886	0	34696	
1887	0	34764	
1888	0	34764	
1889	0	34432	
1890	0	34016	
1891	0	33792	
1892	0	33548	
1893	0	33516	
1894	0	33460	
1895	0	33376	
1896	0	33216	
1897	0	32856	
1898	0	32516	
1899	0	32280	
1900	0	32196	
1901	0	32140	
1902	0	32160	
1903	0	32432	
1904	0	32772	
1905	0	33080	
1906	0	33276	
1907	0	33448	
1908	0	33788	
1909	0	34056	
1910	0	34284	
1911	0	34664	
1912	0	34992	
1913	0	34780	
1914	0	34324	
1915	0	34000	
1916	0	33932	
1917	0	33820	
1918	0	33604	
1919	0	33528	
1920	0	33356	
1921	0	33048	
1922	0	32728	
1923	0	32716	
1924	0	32778	
1925	0	32744	
1926	0	32580	
1927	0	32336	
1928	0	32552	
1929	0	32608	
1930	0	32764	
1931	0	33096	
1932	0	33392	
1933	0	33820	
1934	0	34056	
1935	0	33768	
1936	0	33192	
1937	0	32656	
1938	0	32348	
1939	0	32324	
1940	0	32596	
1941	0	33040	
1942	0	33192	
1943	0	33074	
1944	0	32788	
1945	0	32216	
1946	0	31572	
1947	0	31016	
1948	0	30696	
1949	0	30508	
1950	0	30244	
1951	0	29868	
1952	0	29320	
1953	0	28964	
1954	0	29176	
1955	0	29964	
1956	0	31149	
1957	0	32592	
1958	0	33792	
1959	0	34792	
1960	0	35692	
1961	0	36852	
1962	0	37672	
1963	0	37632	
1964	0	37528	
1965	0	37568	
1966	0	37748	
1967	0	38128	
1968	0	38292	
1969	0	38048	
1970	0	37600	
1971	0	36864	
1972	0	35828	
1973	0	34792	
1974	0	33900	
1975	0	33388	
1976	0	33460	
1977	0	34060	
1978	0	34500	
1979	0	34668	
1980	0	35096	
1981	0	35376	
1982	0	35692	
1983	0	36176	
1984	0	36640	
1985	0	36916	
1986	0	37080	
1987	0	37172	
1988	0	37024	
1989	0	36868	
1990	0	37080	
1991	0	36940	
1992	0	36104	
1993	0	35520	
1994	0	35544	
1995	0	35772	
1996	0	36076	
1997	0	35980	
1998	0	35896	
1999	0	36140	
2000	0	36320	
2001	0	36116	
2002	0	35508	
2003	0	35028	
2004	0	34836	
2005	0	34688	
2006	0	34808	
2007	0	34912	
2008	0	34812	
2009	0	34624	
2010	0	34592	
2011	0	34680	
2012	0	34708	
2013	0	34900	
2014	0	35144	
2015	0	35228	
2016	0	35264	
2017	0	35284	
2018	0	35572	
2019	0	35940	
2020	0	36144	
2021	0	36104	
2022	0	36208	
2023	0	35996	
2024	0	35632	
2025	0	35352	
2026	0	35280	
2027	0	35256	
2028	0	35376	
2029	0	35340	
2030	0	35172	
2031	0	35032	
2032	0	35052	
2033	0	35124	
2034	0	35064	
2035	0	35024	
2036	0	35024	
2037	0	35092	
2038	0	35120	
2039	0	34916	
2040	0	34696	
2041	0	34744	
2042	0	34960	
2043	0	35272	
2044	0	35753	
2045	0	36236	
2046	0	36184	
2047	0	36048	
2048	0	35924	
2049	0	35840	
2050	0	35912	
2051	0	36136	
2052	0	36116	
2053	0	35824	
2054	0	35732	
2055	0	35976	
2056	0	36124	
2057	0	36012	
2058	0	35696	
2059	0	35368	
2060	0	35320	
2061	0	35256	
2062	0	35068	
2063	0	35108	
2064	0	35224	
2065	0	35234	
2066	0	34996	
2067	0	34736	
2068	0	34724	
2069	0	34976	
2070	0	35370	
2071	0	35540	
2072	0	35728	
2073	0	35768	
2074	0	35392	
2075	0	35036	
2076	0	34804	
2077	0	34740	
2078	0	34892	
2079	0	35280	
2080	0	35636	
2081	0	35672	
2082	0	35716	
2083	0	35876	
2084	0	35796	
2085	0	35720	
2086	0	35692	
2087	0	35852	
2088	0	35916	
2089	0	35884	
2090	0	35664	
2091	0	35464	
2092	0	35456	
2093	0	35444	
2094	0	35404	
2095	0	35624	
2096	0	35800	
2097	0	35628	
2098	0	35280	
2099	0	35040	
2100	0	34972	
2101	0	35016	
2102	0	35192	
2103	0	35244	
2104	0	35168	
2105	0	35184	
2106	0	35320	
2107	0	35320	
2108	0	35392	
2109	0	35264	
2110	0	35408	
2111	0	35492	
2112	0	35546	
2113	0	35528	
2114	0	35208	
2115	0	34868	
2116	0	34720	
2117	0	34664	
2118	0	34552	
2119	0	34528	
2120	0	34396	
2121	0	34280	
2122	0	34212	
2123	0	34368	
2124	0	34648	
2125	0	34896	
2126	0	34920	
2127	0	34648	
2128	0	34176	
2129	0	34144	
2130	0	34080	
2131	0	33736	
2132	0	33476	
2133	0	33492	
2134	0	33528	
2135	0	33412	
2136	0	33168	
2137	0	32976	
2138	0	32744	
2139	0	32584	
2140	0	32328	
2141	0	32052	
2142	0	31908	
2143	0	31884	
2144	0	31952	
2145	0	32072	
2146	0	32144	
2147	0	32108	
2148	0	31908	
2149	0	31748	
2150	0	31564	
2151	0	31274	
2152	0	30856	
2153	0	30540	
2154	0	30668	
2155	0	30892	
2156	0	31104	
2157	0	31228	
2158	0	31008	
2159	0	30552	
2160	0	29996	
2161	0	29628	
2162	0	29344	
2163	0	29060	
2164	0	29169	
2165	0	29512	
2166	0	29766	
2167	0	29994	
2168	0	30280	
2169	0	30377	
2170	0	30324	
2171	0	30296	
2172	0	30284	
2173	0	30096	
2174	0	29754	
2175	0	29568	
2176	0	29584	
2177	0	29600	
2178	0	29804	
2179	0	29876	
2180	0	29596	
2181	0	29492	
2182	0	29650	
2183	0	29956	
2184	0	30368	
2185	0	30562	
2186	0	30680	
2187	0	30776	
2188	0	31048	
2189	0	31396	
2190	0	31632	
2191	0	31960	
2192	0	32140	
2193	0	32232	
2194	0	32236	
2195	0	32228	
2196	0	32612	
2197	0	32800	
2198	0	32916	
2199	0	33152	
2200	0	33628	
2201	0	33928	
2202	0	34056	
2203	0	34376	
2204	0	34780	
2205	0	35104	
2206	0	35424	
2207	0	35880	
2208	0	36280	
2209	0	36584	
2210	0	36812	
2211	0	36796	
2212	0	36830	
2213	0	36888	
2214	0	36837	
2215	0	36648	
2216	0	36444	
2217	0	36608	
2218	0	36876	
2219	0	37252	
2220	0	37860	
2221	0	38108	
2222	0	38000	
2223	0	37744	
2224	0	37424	
2225	0	37272	
2226	0	37052	
2227	0	36480	
2228	0	35888	
2229	0	35280	
2230	0	34744	
2231	0	34272	
2232	0	34068	
2233	0	33908	
2234	0	33588	
2235	0	33514	
2236	0	33688	
2237	0	33988	
2238	0	34360	
2239	0	34820	
2240	0	35356	
2241	0	36000	
2242	0	36628	
2243	0	37036	
2244	0	37376	
2245	0	37400	
2246	0	37292	
2247	0	37144	
2248	0	36840	
2249	0	36480	
2250	0	36200	
2251	0	35800	
2252	0	34920	
2253	0	34170	
2254	0	33488	
2255	0	32900	
2256	0	32368	
2257	0	31738	
2258	0	30976	
2259	0	30225	
2260	0	29180	
2261	0	27824	
2262	0	26136	
2263	0	24460	
2264	0	22896	
2265	0	21020	
2266	0	18852	
2267	0	16500	
2268	0	14168	
2269	0	11836	
2270	0	9352	
2271	0	7157	
2272	0	5181	
2273	0	3415	
2274	0	2348	
2275	0	1876	
2276	0	1687	
2277	0	1650	
2278	0	1695	
2279	0	1780	
2280	0	1884	
2281	0	1992	
2282	0	2114	
2283	0	6109	
2284	0	12766	
2285	0	19268	
2286	0	24984	
2287	0	30432	
2288	0	35704	
2289	0	40312	
2290	0	44504	
2291	0	48424	
2292	0	52432	
2293	0	56204	
2294	0	59572	
2295	0	62176	
2296	0	64112	
2297	0	65240	
2298	0	65535	
2299	0	65535	
2300	0	65535	
2301	0	65535	
2302	0	65535	
2303	0	65535	
2304	0	65535	
2305	0	65535	
2306	0	65456	
2307	0	62336	
2308	0	59248	
2309	0	56316	
2310	0	53884	
2311	0	51728	
2312	0	50000	
2313	0	48488	
2314	0	47260	
2315	0	46020	
2316	0	44624	
2317	0	43208	
2318	0	42020	
2319	0	40812	
2320	0	39812	
2321	0	39072	
2322	0	38464	
2323	0	37984	
2324	0	37668	
2325	0	37412	
2326	0	37228	
2327	0	37028	
2328	0	36768	
2329	0	36608	
2330	0	36424	
2331	0	36080	
2332	0	35944	
2333	0	35904	
2334	0	35788	
2335	0	35652	
2336	0	35412	
2337	0	35184	
2338	0	35008	
2339	0	34772	
2340	0	34448	
2341	0	34032	
2342	0	33932	
2343	0	34140	
2344	0	34408	
2345	0	34292	
2346	0	34096	
2347	0	33988	
2348	0	34106	
2349	0	34004	
2350	0	33736	
2351	0	33548	
2352	0	33770	
2353	0	34316	
2354	0	34600	
2355	0	34496	
2356	0	34152	
2357	0	34098	
2358	0	34088	
2359	0	33868	
2360	0	33716	
2361	0	33896	
2362	0	34076	
2363	0	34034	
2364	0	34084	
2365	0	34094	
2366	0	34100	
2367	0	33912	
2368	0	33468	
2369	0	33104	
2370	0	32930	
2371	0	32874	
2372	0	32824	
2373	0	32776	
2374	0	33012	
2375	0	33268	
2376	0	33252	
2377	0	33296	
2378	0	33464	
2379	0	33704	
2380	0	33924	
2381	0	34312	
2382	0	34416	
2383	0	34208	
2384	0	34072	
2385	0	34048	
2386	0	33968	
2387	0	33944	
2388	0	33520	
2389	0	32992	
2390	0	32812	
2391	0	32848	
2392	0	33064	
2393	0	33584	
2394	0	33936	
2395	0	34160	
2396	0	34216	
2397	0	33804	
2398	0	33128	
2399	0	32236	
2400	0	31336	
2401	0	30908	
2402	0	30776	
2403	0	30712	
2404	0	30760	
2405	0	30888	
2406	0	31148	
2407	0	31560	
2408	0	31920	
2409	0	32200	
2410	0	32224	
2411	0	32192	
2412	0	32280	
2413	0	32200	
2414	0	32104	
2415	0	32180	
2416	0	32408	
2417	0	32508	
2418	0	32644	
2419	0	32740	
2420	0	32740	
2421	0	32692	
2422	0	32640	
2423	0	32620	
2424	0	32696	
2425	0	32696	
2426	0	32604	
2427	0	32260	
2428	0	31824	
2429	0	31452	
2430	0	31264	
2431	0	31108	
2432	0	30836	
2433	0	30584	
2434	0	30326	
2435	0	30349	
2436	0	30384	
2437	0	30388	
2438	0	30276	
2439	0	30208	
2440	0	30424	
2441	0	30884	
2442	0	31156	
2443	0	31152	
2444	0	31380	
2445	0	31640	
2446	0	31904	
2447	0	32132	
2448	0	32072	
2449	0	31840	
2450	0	31412	
2451	0	30996	
2452	0	30420	
2453	0	29804	
2454	0	29196	
2455	0	28844	
2456	0	28812	
2457	0	29080	
2458	0	29748	
2459	0	30264	
2460	0	30708	
2461	0	30940	
2462	0	31104	
2463	0	31304	
2464	0	31792	
2465	0	32052	
2466	0	31884	
2467	0	31524	
2468	0	31476	
2469	0	31600	
2470	0	31668	
2471	0	31248	
2472	0	30816	
2473	0	30900	
2474	0	31296	
2475	0	31308	
2476	0	31088	
2477	0	31004	
2478	0	31164	
2479	0	31416	
2480	0	31796	
2481	0	32196	
2482	0	32124	
2483	0	32026	
2484	0	32028	
2485	0	31720	
2486	0	31064	
2487	0	30428	
2488	0	30212	
2489	0	30420	
2490	0	30730	
2491	0	31100	
2492	0	31548	
2493	0	31862	
2494	0	32160	
2495	0	32476	
2496	0	32836	
2497	0	33024	
2498	0	33348	
2499	0	33296	
2500	0	33136	
2501	0	33140	
2502	0	33332	
2503	0	33360	
2504	0	33472	
2505	0	34036	
2506	0	34388	
2507	0	34360	
2508	0	34180	
2509	0	34208	
2510	0	34472	
2511	0	34768	
2512	0	35076	
2513	0	35300	
2514	0	35248	
2515	0	35132	
2516	0	35076	
2517	0	34952	
2518	0	34792	
2519	0	34896	
2520	0	35048	
2521	0	35144	
2522	0	35228	
2523	0	35544	
2524	0	35968	
2525	0	35720	
2526	0	35464	
2527	0	35272	
2528	0	35064	
2529	0	34848	
2530	0	34516	
2531	0	34080	
2532	0	33808	
2533	0	33848	
2534	0	34000	
2535	0	34152	
2536	0	34504	
2537	0	34632	
2538	0	34852	
2539	0	35204	
2540	0	35448	
2541	0	35576	
2542	0	35912	
2543	0	36268	
2544	0	36721	
2545	0	37048	
2546	0	37184	
2547	0	37228	
2548	0	37528	
2549	0	37636	
2550	0	37248	
2551	0	36552	
2552	0	35524	
2553	0	34744	
2554	0	34640	
2555	0	34920	
2556	0	35280	
2557	0	35376	
2558	0	35172	
2559	0	35248	
2560	0	35692	
2561	0	35988	
2562	0	36372	
2563	0	36616	
2564	0	36704	
2565	0	36698	
2566	0	36564	
2567	0	36988	
2568	0	37392	
2569	0	37172	
2570	0	36744	
2571	0	36240	
2572	0	36032	
2573	0	35904	
2574	0	35672	
2575	0	35604	
2576	0	36044	
2577	0	36428	
2578	0	36784	
2579	0	37148	
2580	0	37244	
2581	0	36788	
2582	0	36472	
2583	0	36256	
2584	0	36028	
2585	0	35752	
2586	0	35224	
2587	0	35032	
2588	0	34912	
2589	0	34904	
2590	0	35114	
2591	0	35880	
2592	0	36856	
2593	0	37416	
2594	0	37232	
2595	0	36856	
2596	0	36652	
2597	0	36640	
2598	0	36472	
2599	0	36368	
2600	0	36208	
2601	0	35824	
2602	0	35788	
2603	0	35620	
2604	0	35464	
2605	0	35496	
2606	0	35920	
2607	0	36348	
2608	0	36652	
2609	0	36724	
2610	0	36596	
2611	0	36368	
2612	0	35940	
2613	0	35580	
2614	0	35024	
2615	0	34372	
2616	0	33824	
2617	0	33800	
2618	0	34144	
2619	0	34440	
2620	0	34568	
2621	0	34536	
2622	0	34412	
2623	0	34132	
2624	0	33856	
2625	0	33626	
2626	0	33856	
2627	0	34104	
2628	0	33748	
2629	0	33432	
2630	0	33636	
2631	0	34024	
2632	0	34672	
2633	0	35280	
2634	0	35686	
2635	0	36280	
2636	0	36904	
2637	0	36800	
2638	0	36124	
2639	0	35408	
2640	0	34800	
2641	0	34316	
2642	0	34168	
2643	0	34016	
2644	0	33544	
2645	0	33236	
2646	0	33128	
2647	0	33272	
2648	0	33224	
2649	0	32888	
2650	0	32744	
2651	0	33084	
2652	0	33657	
2653	0	34104	
2654	0	34540	
2655	0	34692	
2656	0	34844	
2657	0	34920	
2658	0	34784	
2659	0	34656	
2660	0	34624	
2661	0	34712	
2662	0	34964	
2663	0	35360	
2664	0	35328	
2665	0	35144	
2666	0	35072	
2667	0	34988	
2668	0	34756	
2669	0	34416	
2670	0	33916	
2671	0	33816	
2672	0	34098	
2673	0	34168	
2674	0	34008	
2675	0	34164	
2676	0	34520	
2677	0	34848	
2678	0	35040	
2679	0	35544	
2680	0	36320	
2681	0	36620	
2682	0	36456	
2683	0	35996	
2684	0	35508	
2685	0	35148	
2686	0	34756	
2687	0	34388	
2688	0	34288	
2689	0	34220	
2690	0	33976	
2691	0	34012	
2692	0	33964	
2693	0	33996	
2694	0	34196	
2695	0	34204	
2696	0	34176	
2697	0	34424	
2698	0	34896	
2699	0	35496	
2700	0	35856	
2701	0	35936	
2702	0	35828	
2703	0	35862	
2704	0	36016	
2705	0	36480	
2706	0	37212	
2707	0	37488	
2708	0	37408	
2709	0	37348	
2710	0	37124	
2711	0	36692	
2712	0	35884	
2713	0	35244	
2714	0	34956	
2715	0	34712	
2716	0	34428	
2717	0	33972	
2718	0	33552	
2719	0	33492	
2720	0	33844	
2721	0	34236	
2722	0	34472	
2723	0	34656	
2724	0	34800	
2725	0	34964	
2726	0	35108	
2727	0	35160	
2728	0	35226	
2729	0	35248	
2730	0	35384	
2731	0	35616	
2732	0	35936	
2733	0	35848	
2734	0	35320	
2735	0	34796	
2736	0	34552	
2737	0	34280	
2738	0	34392	
2739	0	34358	
2740	0	34570	
2741	0	35004	
2742	0	35308	
2743	0	35500	
2744	0	35576	
2745	0	35388	
2746	0	35176	
2747	0	35028	
2748	0	34746	
2749	0	34658	
2750	0	34828	
2751	0	34844	
2752	0	34636	
2753	0	34904	
2754	0	35176	
2755	0	35248	
2756	0	35288	
2757	0	35416	
2758	0	35728	
2759	0	35788	
2760	0	35680	
2761	0	35368	
2762	0	34908	
2763	0	34496	
2764	0	34392	
2765	0	34356	
2766	0	34208	
2767	0	34116	
2768	0	34084	
2769	0	34200	
2770	0	34452	
2771	0	34920	
2772	0	35224	
2773	0	35296	
2774	0	35268	
2775	0	35120	
2776	0	34736	
2777	0	34516	
2778	0	34522	
2779	0	34624	
2780	0	34628	
2781	0	34448	
2782	0	34300	
2783	0	34416	
2784	0	34568	
2785	0	34552	
2786	0	34512	
2787	0	34540	
2788	0	34632	
2789	0	34800	
2790	0	34720	
2791	0	34496	
2792	0	34796	
2793	0	35364	
2794	0	35494	
2795	0	35538	
2796	0	35624	
2797	0	35476	
2798	0	34784	
2799	0	33996	
2800	0	33404	
2801	0	33260	
2802	0	33565	
2803	0	33988	
2804	0	34416	
2805	0	34816	
2806	0	35136	
2807	0	35136	
2808	0	34828	
2809	0	34429	
2810	0	34056	
2811	0	33516	
2812	0	33124	
2813	0	32952	
2814	0	33264	
2815	0	33708	
2816	0	33968	
2817	0	33948	
2818	0	34024	
2819	0	34112	
2820	0	34242	
2821	0	34244	
2822	0	34236	
2823	0	34192	
2824	0	34000	
2825	0	33972	
2826	0	33964	
2827	0	33996	
2828	0	34036	
2829	0	33920	
2830	0	33676	
2831	0	33784	
2832	0	33724	
2833	0	33520	
2834	0	33560	
2835	0	33376	
2836	0	33018	
2837	0	32970	
2838	0	32900	
2839	0	32493	
2840	0	32272	
2841	0	32240	
2842	0	32488	
2843	0	32712	
2844	0	32808	
2845	0	32660	
2846	0	32460	
2847	0	32012	
2848	0	31744	
2849	0	31508	
2850	0	31200	
2851	0	30748	
2852	0	30708	
2853	0	30580	
2854	0	30480	
2855	0	30600	
2856	0	30682	
2857	0	30944	
2858	0	31048	
2859	0	30856	
2860	0	30544	
2861	0	30280	
2862	0	30022	
2863	0	30000	
2864	0	30076	
2865	0	30144	
2866	0	30068	
2867	0	29968	
2868	0	29756	
2869	0	29524	
2870	0	29064	
2871	0	28760	
2872	0	28548	
2873	0	28556	
2874	0	28644	
2875	0	28576	
2876	0	28700	
2877	0	28876	
2878	0	28878	
2879	0	28764	
2880	0	28673	
2881	0	28752	
2882	0	28816	
2883	0	29052	
2884	0	29268	
2885	0	29372	
2886	0	29300	
2887	0	29116	
2888	0	28952	
2889	0	28864	
2890	0	28664	
2891	0	28528	
2892	0	28744	
2893	0	29412	
2894	0	30032	
2895	0	30472	
2896	0	30952	
2897	0	31684	
2898	0	32148	
2899	0	32312	
2900	0	31970	
2901	0	31568	
2902	0	31240	
2903	0	31252	
2904	0	31176	
2905	0	31492	
2906	0	31820	
2907	0	32064	
2908	0	32212	
2909	0	32304	
2910	0	32636	
2911	0	33060	
2912	0	33396	
2913	0	33938	
2914	0	34104	
2915	0	33944	
2916	0	33516	
2917	0	33056	
2918	0	32864	
2919	0	32868	
2920	0	32884	
2921	0	33248	
2922	0	33924	
2923	0	34440	
2924	0	34896	
2925	0	35272	
2926	0	35832	
2927	0	36268	
2928	0	36660	
2929	0	36736	
2930	0	36864	
2931	0	36960	
2932	0	36862	
2933	0	36712	
2934	0	36320	
2935	0	35832	
2936	0	35316	
2937	0	34850	
2938	0	34508	
2939	0	34496	
2940	0	34588	
2941	0	34632	
2942	0	34808	
2943	0	34764	
2944	0	34560	
2945	0	34540	
2946	0	34624	
2947	0	34592	
2948	0	34876	
2949	0	34972	
2950	0	34864	
2951	0	34768	
2952	0	34492	
2953	0	33888	
2954	0	33488	
2955	0	33286	
2956	0	33176	
2957	0	33352	
2958	0	33684	
2959	0	33680	
2960	0	33504	
2961	0	33340	
2962	0	33084	
2963	0	33104	
2964	0	33160	
2965	0	33180	
2966	0	33184	
2967	0	32668	
2968	0	31676	
2969	0	30560	
2970	0	29388	
2971	0	28160	
2972	0	26192	
2973	0	24010	
2974	0	21882	
2975	0	19608	
2976	0	17266	
2977	0	15009	
2978	0	12850	
2979	0	10856	
2980	0	8812	
2981	0	6549	
2982	0	4168	
2983	0	1789	
2984	0	101	
2985	0	16	
2986	0	15	
2987	0	14	
2988	0	14	
2989	0	14	
2990	0	14	
2991	0	15	
2992	0	16	
2993	0	2064	
2994	0	8424	
2995	0	14670	
2996	0	20588	
2997	0	26357	
2998	0	31948	
2999	0	37170	
3000	0	42128	
3001	0	46708	
3002	0	50952	
3003	0	54640	
3004	0	57784	
3005	0	59840	
3006	0	61120	
3007	0	62216	
3008	0	62944	
3009	0	63256	
3010	0	63356	
3011	0	63364	
3012	0	63304	
3013	0	63224	
3014	0	63120	
3015	0	63016	
3016	0	60608	
3017	0	57940	
3018	0	55440	
3019	0	52872	
3020	0	50432	
3021	0	48160	
3022	0	46056	
3023	0	44376	
3024	0	43012	
3025	0	41776	
3026	0	40744	
3027	0	39824	
3028	0	39168	
3029	0	38600	
3030	0	38284	
3031	0	37944	
3032	0	37448	
3033	0	36740	
3034	0	35920	
3035	0	35268	
3036	0	34792	
3037	0	34632	
3038	0	34568	
3039	0	34640	
3040	0	34698	
3041	0	34756	
3042	0	34756	
3043	0	34560	
3044	0	34192	
3045	0	33664	
3046	0	33178	
3047	0	32908	
3048	0	32836	
3049	0	32760	
3050	0	32704	
3051	0	32676	
3052	0	32700	
3053	0	32488	
3054	0	32144	
3055	0	31592	
3056	0	31488	
3057	0	31548	
3058	0	31946	
3059	0	32514	
3060	0	32796	
3061	0	32832	
3062	0	32792	
3063	0	32980	
3064	0	33144	
3065	0	32920	
3066	0	32652	
3067	0	32528	
3068	0	32276	
3069	0	31772	
3070	0	31360	
3071	0	31312	
3072	0	31480	
3073	0	31794	
3074	0	31940	
3075	0	32104	
3076	0	32192	
3077	0	31804	
3078	0	31432	
3079	0	31152	
3080	0	30844	
3081	0	30692	
3082	0	30594	
3083	0	30602	
3084	0	30626	
3085	0	30776	
3086	0	30904	
3087	0	31076	
3088	0	31589	
3089	0	32020	
3090	0	32184	
3091	0	32124	
3092	0	31972	
3093	0	31760	
3094	0	31424	
3095	0	31250	
3096	0	31272	
3097	0	31108	
3098	0	30892	
3099	0	30932	
3100	0	31096	
3101	0	31200	
3102	0	31348	
3103	0	31484	
3104	0	31408	
3105	0	31196	
3106	0	30940	
3107	0	30848	
3108	0	30540	
3109	0	30200	
3110	0	29992	
3111	0	29968	
3112	0	30220	
3113	0	30616	
3114	0	30856	
3115	0	30776	
3116	0	30408	
3117	0	30024	
3118	0	29816	
3119	0	29804	
3120	0	29896	
3121	0	30068	
3122	0	30060	
3123	0	29944	
3124	0	30032	
3125	0	30112	
3126	0	30032	
3127	0	29720	
3128	0	29388	
3129	0	29272	
3130	0	29236	
3131	0	29420	
3132	0	29480	
3133	0	29596	
3134	0	29725	
3135	0	29928	
3136	0	30196	
3137	0	30240	
3138	0	30076	
3139	0	29808	
3140	0	29664	
3141	0	29624	
3142	0	29600	
3143	0	29536	
3144	0	29224	
3145	0	28640	
3146	0	28286	
3147	0	28080	
3148	0	28104	
3149	0	28352	
3150	0	28600	
3151	0	28560	
3152	0	28352	
3153	0	28256	
3154	0	28132	
3155	0	28098	
3156	0	27976	
3157	0	28232	
3158	0	28584	
3159	0	28512	
3160	0	28364	
3161	0	28134	
3162	0	27800	
3163	0	27701	
3164	0	27749	
3165	0	27816	
3166	0	28208	
3167	0	28792	
3168	0	29024	
3169	0	28948	
3170	0	28568	
3171	0	28140	
3172	0	27852	
3173	0	27588	
3174	0	27160	
3175	0	26760	
3176	0	26705	
3177	0	27080	
3178	0	27656	
3179	0	28120	
3180	0	28364	
3181	0	28578	
3182	0	28620	
3183	0	28704	
3184	0	28588	
3185	0	28544	
3186	0	28604	
3187	0	28772	
3188	0	29116	
3189	0	29344	
3190	0	29432	
3191	0	29292	
3192	0	29356	
3193	0	29456	
3194	0	29412	
3195	0	29416	
3196	0	29584	
3197	0	29580	
3198	0	29192	
3199	0	28964	
3200	0	29032	
3201	0	28984	
3202	0	29020	
3203	0	29156	
3204	0	29400	
3205	0	29480	
3206	0	29454	
3207	0	29532	
3208	0	29876	
3209	0	30060	
3210	0	30112	
3211	0	30208	
3212	0	30256	
3213	0	30320	
3214	0	30156	
3215	0	29960	
3216	0	29876	
3217	0	30012	
3218	0	30548	
3219	0	31312	
3220	0	31880	
3221	0	32204	
3222	0	32376	
3223	0	32364	
3224	0	32192	
3225	0	31910	
3226	0	31548	
3227	0	31460	
3228	0	31656	
3229	0	31604	
3230	0	31420	
3231	0	31464	
3232	0	31712	
3233	0	32048	
3234	0	32392	
3235	0	32572	
3236	0	32596	
3237	0	32356	
3238	0	32288	
3239	0	32568	
3240	0	32738	
3241	0	32960	
3242	0	33018	
3243	0	33084	
3244	0	33160	
3245	0	33104	
3246	0	33056	
3247	0	32968	
3248	0	32748	
3249	0	32712	
3250	0	32804	
3251	0	32762	
3252	0	32664	
3253	0	32668	
3254	0	32640	
3255	0	32936	
3256	0	33284	
3257	0	33396	
3258	0	33464	
3259	0	33588	
3260	0	33456	
3261	0	32972	
3262	0	32256	
3263	0	31700	
3264	0	31592	
3265	0	31768	
3266	0	32032	
3267	0	32148	
3268	0	32448	
3269	0	32916	
3270	0	33372	
3271	0	33482	
3272	0	33764	
3273	0	34248	
3274	0	34636	
3275	0	34832	
3276	0	34756	
3277	0	34620	
3278	0	34548	
3279	0	34344	
3280	0	33944	
3281	0	33544	
3282	0	33328	
3283	0	33488	
3284	0	33792	
3285	0	34072	
3286	0	34284	
3287	0	34548	
3288	0	34552	
3289	0	34444	
3290	0	34584	
3291	0	34700	
3292	0	34448	
3293	0	34184	
3294	0	33964	
3295	0	33760	
3296	0	33432	
3297	0	33064	
3298	0	33016	
3299	0	33064	
3300	0	33320	
3301	0	33672	
3302	0	33616	
3303	0	33548	
3304	0	33492	
3305	0	33560	
3306	0	33544	
3307	0	33556	
3308	0	33476	
3309	0	33504	
3310	0	33624	
3311	0	33848	
3312	0	34108	
3313	0	34472	
3314	0	34660	
3315	0	34656	
3316	0	34588	
3317	0	34312	
3318	0	34064	
3319	0	33712	
3320	0	33188	
3321	0	32536	
3322	0	32048	
3323	0	31768	
3324	0	31836	
3325	0	31864	
3326	0	31834	
3327	0	32036	
3328	0	32352	
3329	0	32596	
3330	0	32844	
3331	0	33048	
3332	0	33096	
3333	0	33044	
3334	0	33016	
3335	0	32960	
3336	0	32752	
3337	0	32516	
3338	0	32172	
3339	0	31924	
3340	0	31812	
3341	0	31588	
3342	0	31540	
3343	0	31752	
3344	0	31872	
3345	0	32044	
3346	0	32208	
3347	0	32492	
3348	0	32536	
3349	0	32620	
3350	0	32908	
3351	0	33096	
3352	0	33064	
3353	0	32924	
3354	0	32880	
3355	0	32944	
3356	0	33240	
3357	0	33354	
3358	0	33268	
3359	0	33244	
3360	0	33156	
3361	0	33184	
3362	0	33092	
3363	0	32744	
3364	0	32340	
3365	0	32052	
3366	0	31908	
3367	0	32098	
3368	0	32288	
3369	0	32564	
3370	0	32584	
3371	0	32612	
3372	0	32752	
3373	0	33044	
3374	0	33404	
3375	0	33944	
3376	0	34386	
3377	0	34504	
3378	0	34688	
3379	0	34780	
3380	0	34728	
3381	0	34368	
3382	0	33782	
3383	0	33360	
3384	0	32872	
3385	0	32716	
3386	0	32668	
3387	0	32684	
3388	0	32648	
3389	0	32600	
3390	0	32672	
3391	0	32944	
3392	0	33160	
3393	0	33256	
3394	0	33180	
3395	0	32928	
3396	0	32784	
3397	0	32668	
3398	0	32632	
3399	0	32672	
3400	0	32996	
3401	0	33240	
3402	0	33144	
3403	0	33016	
3404	0	33084	
3405	0	32844	
3406	0	32428	
3407	0	32280	
3408	0	32352	
3409	0	32472	
3410	0	32616	
3411	0	32856	
3412	0	33020	
3413	0	33068	
3414	0	33180	
3415	0	33384	
3416	0	33584	
3417	0	33576	
3418	0	33444	
3419	0	33388	
3420	0	33312	
3421	0	33368	
3422	0	33392	
3423	0	33454	
3424	0	33608	
3425	0	33648	
3426	0	33920	
3427	0	34228	
3428	0	34320	
3429	0	34236	
3430	0	34180	
3431	0	33936	
3432	0	33648	
3433	0	33372	
3434	0	33064	
3435	0	32944	
3436	0	32980	
3437	0	33056	
3438	0	33128	
3439	0	33220	
3440	0	33296	
3441	0	33322	
3442	0	33496	
3443	0	33608	
3444	0	33706	
3445	0	33864	
3446	0	33874	
3447	0	33816	
3448	0	33736	
3449	0	33724	
3450	0	33824	
3451	0	33848	
3452	0	33748	
3453	0	33664	
3454	0	33556	
3455	0	33656	
3456	0	33808	
3457	0	33912	
3458	0	33920	
3459	0	33652	
3460	0	33388	
3461	0	33300	
3462	0	33320	
3463	0	33416	
3464	0	33528	
3465	0	33412	
3466	0	33484	
3467	0	33802	
3468	0	34224	
3469	0	34714	
3470	0	34948	
3471	0	34892	
3472	0	34492	
3473	0	33936	
3474	0	33544	
3475	0	33208	
3476	0	32856	
3477	0	32648	
3478	0	32656	
3479	0	32660	
3480	0	32724	
3481	0	32632	
3482	0	33040	
3483	0	33514	
3484	0	33760	
3485	0	33904	
3486	0	34088	
3487	0	34292	
3488	0	34456	
3489	0	34576	
3490	0	34424	
3491	0	34092	
3492	0	33744	
3493	0	33316	
3494	0	33040	
3495	0	32888	
3496	0	32544	
3497	0	32058	
3498	0	31824	
3499	0	31780	
3500	0	31832	
3501	0	31970	
3502	0	32096	
3503	0	32208	
3504	0	32296	
3505	0	32496	
3506	0	32408	
3507	0	32008	
3508	0	31360	
3509	0	30900	
3510	0	30860	
3511	0	30764	
3512	0	30880	
3513	0	31013	
3514	0	31064	
3515	0	31104	
3516	0	31248	
3517	0	31482	
3518	0	31600	
3519	0	31440	
3520	0	31312	
3521	0	31232	
3522	0	31000	
3523	0	30700	
3524	0	30664	
3525	0	30680	
3526	0	30756	
3527	0	30752	
3528	0	30524	
3529	0	30320	
3530	0	30030	
3531	0	29720	
3532	0	29532	
3533	0	29192	
3534	0	28784	
3535	0	28380	
3536	0	28118	
3537	0	28064	
3538	0	27928	
3539	0	27740	
3540	0	27502	
3541	0	27312	
3542	0	27400	
3543	0	27696	
3544	0	27892	
3545	0	28082	
3546	0	28204	
3547	0	28204	
3548	0	28268	
3549	0	28448	
3550	0	28620	
3551	0	28924	
3552	0	29256	
3553	0	29456	
3554	0	29720	
3555	0	30008	
3556	0	30024	
3557	0	29916	
3558	0	30102	
3559	0	30224	
3560	0	30348	
3561	0	30656	
3562	0	30938	
3563	0	31020	
3564	0	31034	
3565	0	31085	
3566	0	31236	
3567	0	31548	
3568	0	31808	
3569	0	32188	
3570	0	32612	
3571	0	32880	
3572	0	32884	
3573	0	32676	
3574	0	32500	
3575	0	32552	
3576	0	32876	
3577	0	33444	
3578	0	34128	
3579	0	34632	
3580	0	34652	
3581	0	34596	
3582	0	34388	
3583	0	34336	
3584	0	34320	
3585	0	34260	
3586	0	34284	
3587	0	34224	
3588	0	34272	
3589	0	34752	
3590	0	35144	
3591	0	35368	
3592	0	35456	
3593	0	35444	
3594	0	35800	
3595	0	36108	
3596	0	36176	
3597	0	35996	
3598	0	35812	
3599	0	35584	
3600	0	35152	
3601	0	34748	
3602	0	34784	
3603	0	34960	
3604	0	35136	
3605	0	35201	
3606	0	35120	
3607	0	34932	
3608	0	34956	
3609	0	34920	
3610	0	35060	
3611	0	35096	
3612	0	35088	
3613	0	35232	
3614	0	35440	
3615	0	35316	
3616	0	35012	
3617	0	34584	
3618	0	34200	
3619	0	34224	
3620	0	34376	
3621	0	34584	
3622	0	34616	
3623	0	34756	
3624	0	34984	
3625	0	35020	
3626	0	35028	
3627	0	34952	
3628	0	34720	
3629	0	34258	
3630	0	33748	
3631	0	33056	
3632	0	32437	
3633	0	31608	
3634	0	30548	
3635	0	29640	
3636	0	28669	
3637	0	27516	
3638	0	26228	
3639	0	24696	
3640	0	23060	
3641	0	21378	
3642	0	19504	
3643	0	17560	
3644	0	15504	
3645	0	13320	
3646	0	11150	
3647	0	8961	
3648	0	6640	
3649	0	4279	
3650	0	2232	
3651	0	1180	
3652	0	701	
3653	0	527	
3654	0	490	
3655	0	534	
3656	0	615	
3657	0	719	
3658	0	827	
3659	0	954	
3660	0	4880	
3661	0	11297	
3662	0	17372	
3663	0	23136	
3664	0	28540	
3665	0	33572	
3666	0	38232	
3667	0	42586	
3668	0	46624	
3669	0	50448	
3670	0	53992	
3671	0	56964	
3672	0	59288	
3673	0	61008	
3674	0	62464	
3675	0	63664	
3676	0	64408	
3677	0	64732	
3678	0	64832	
3679	0	64540	
3680	0	63440	
3681	0	61816	
3682	0	60048	
3683	0	58224	
3684	0	56168	
3685	0	53884	
3686	0	51392	
3687	0	49116	
3688	0	47068	
3689	0	45300	
3690	0	43704	
3691	0	42296	
3692	0	41208	
3693	0	40184	
3694	0	39200	
3695	0	38368	
3696	0	37740	
3697	0	37192	
3698	0	36580	
3699	0	36048	
3700	0	35484	
3701	0	35016	
3702	0	34840	
3703	0	34656	
3704	0	34428	
3705	0	34124	
3706	0	33800	
3707	0	33424	
3708	0	33088	
3709	0	32688	
3710	0	32176	
3711	0	31856	
3712	0	31752	
3713	0	31900	
3714	0	31962	
3715	0	32096	
3716	0	32216	
3717	0	32276	
3718	0	32496	
3719	0	32688	
3720	0	32680	
3721	0	32520	
3722	0	32300	
3723	0	32052	
3724	0	31788	
3725	0	31658	
3726	0	31710	
3727	0	31832	
3728	0	31834	
3729	0	31784	
3730	0	31680	
3731	0	31544	
3732	0	31392	
3733	0	31176	
3734	0	30892	
3735	0	30864	
3736	0	30986	
3737	0	30922	
3738	0	30712	
3739	0	30660	
3740	0	30696	
3741	0	30756	
3742	0	30700	
3743	0	30540	
3744	0	30432	
3745	0	30212	
3746	0	30016	
3747	0	29908	
3748	0	30028	
3749	0	30232	
3750	0	30668	
3751	0	31133	
3752	0	31384	
3753	0	31444	
3754	0	31564	
3755	0	31432	
3756	0	31324	
3757	0	31432	
3758	0	31472	
3759	0	31444	
3760	0	31560	
3761	0	31520	
3762	0	31364	
3763	0	31084	
3764	0	30860	
3765	0	30612	
3766	0	30160	
3767	0	30016	
3768	0	30016	
3769	0	30108	
3770	0	30204	
3771	0	30304	
3772	0	30212	
3773	0	30058	
3774	0	30052	
3775	0	29960	
3776	0	29728	
3777	0	29584	
3778	0	29432	
3779	0	29160	
3780	0	28848	
3781	0	28738	
3782	0	28952	
3783	0	29280	
3784	0	29468	
3785	0	29512	
3786	0	29356	
3787	0	29132	
3788	0	28928	
3789	0	28924	
3790	0	28856	
3791	0	28632	
3792	0	28464	
3793	0	28636	
3794	0	28920	
3795	0	28960	
3796	0	28880	
3797	0	28853	
3798	0	28908	
3799	0	29008	
3800	0	29122	
3801	0	29048	
3802	0	29044	
3803	0	28892	
3804	0	28656	
3805	0	28472	
3806	0	28512	
3807	0	28580	
3808	0	28616	
3809	0	28504	
3810	0	28416	
3811	0	28480	
3812	0	28320	
3813	0	28272	
3814	0	28412	
3815	0	28588	
3816	0	28536	
3817	0	28500	
3818	0	28420	
3819	0	28476	
3820	0	28468	
3821	0	28308	
3822	0	28240	
3823	0	28304	
3824	0	28510	
3825	0	28592	
3826	0	28698	
3827	0	28576	
3828	0	28220	
3829	0	28024	
3830	0	27992	
3831	0	27888	
3832	0	27744	
3833	0	27546	
3834	0	27530	
3835	0	27672	
3836	0	27524	
3837	0	27264	
3838	0	27104	
3839	0	27076	
3840	0	27080	
3841	0	26896	
3842	0	26820	
3843	0	26896	
3844	0	27182	
3845	0	27552	
3846	0	27792	
3847	0	28000	
3848	0	28112	
3849	0	28256	
3850	0	28480	
3851	0	28726	
3852	0	28700	
3853	0	28632	
3854	0	28612	
3855	0	28608	
3856	0	28572	
3857	0	28216	
3858	0	27684	
3859	0	27472	
3860	0	27412	
3861	0	27556	
3862	0	27596	
3863	0	27704	
3864	0	27872	
3865	0	27948	
3866	0	27928	
3867	0	27890	
3868	0	27908	
3869	0	28080	
3870	0	28244	
3871	0	28352	
3872	0	28400	
3873	0	28680	
3874	0	29068	
3875	0	29408	
3876	0	29664	
3877	0	29732	
3878	0	29716	
3879	0	29680	
3880	0	29748	
3881	0	29776	
3882	0	29878	
3883	0	30188	
3884	0	30468	
3885	0	30528	
3886	0	30380	
3887	0	30176	
3888	0	30128	
3889	0	30172	
3890	0	30272	
3891	0	30544	
3892	0	30756	
3893	0	31004	
3894	0	30960	
3895	0	30584	
3896	0	30384	
3897	0	30460	
3898	0	30624	
3899	0	30908	
3900	0	31120	
3901	0	31248	
3902	0	31236	
3903	0	31064	
3904	0	31168	
3905	0	31434	
3906	0	31648	
3907	0	31784	
3908	0	31868	
3909	0	31948	
3910	0	31972	
3911	0	31924	
3912	0	31916	
3913	0	31964	
3914	0	32064	
3915	0	32056	
3916	0	32164	
3917	0	32336	
3918	0	32426	
3919	0	32528	
3920	0	32440	
3921	0	32112	
3922	0	31940	
3923	0	31900	
3924	0	31988	
3925	0	32226	
3926	0	32648	
3927	0	32940	
3928	0	33180	
3929	0	33568	
3930	0	33888	
3931	0	34064	
3932	0	34148	
3933	0	34238	
3934	0	34230	
3935	0	34088	
3936	0	33948	
3937	0	33816	
3938	0	34022	
3939	0	34328	
3940	0	34424	
3941	0	34408	
3942	0	34346	
3943	0	34144	
3944	0	34052	
3945	0	33976	
3946	0	33932	
3947	0	33816	
3948	0	33924	
3949	0	33848	
3950	0	33724	
3951	0	33656	
3952	0	33550	
3953	0	33636	
3954	0	33676	
3955	0	33658	
3956	0	33768	
3957	0	33740	
3958	0	33760	
3959	0	34048	
3960	0	34308	
3961	0	34552	
3962	0	34960	
3963	0	35348	
3964	0	35624	
3965	0	35536	
3966	0	35108	
3967	0	34640	
3968	0	34088	
3969	0	33684	
3970	0	33472	
3971	0	33356	
3972	0	33226	
3973	0	33304	
3974	0	33596	
3975	0	33760	
3976	0	33800	
3977	0	33652	
3978	0	33496	
3979	0	33412	
3980	0	33352	
3981	0	33416	
3982	0	33540	
3983	0	33604	
3984	0	33784	
3985	0	33888	
3986	0	33880	
3987	0	33700	
3988	0	33608	
3989	0	33624	
3990	0	33616	
3991	0	33640	
3992	0	33484	
3993	0	33208	
3994	0	33152	
3995	0	33224	
3996	0	33420	
3997	0	33624	
3998	0	33660	
3999	0	33548	
4000	0	33516	
4001	0	33432	
4002	0	33412	
4003	0	33464	
4004	0	33460	
4005	0	33432	
4006	0	33240	
4007	0	33154	
4008	0	33192	
4009	0	33320	
4010	0	33328	
4011	0	33316	
4012	0	33244	
4013	0	33068	
4014	0	32744	
4015	0	32580	
4016	0	32372	
4017	0	32212	
4018	0	32068	
4019	0	32188	
4020	0	32468	
4021	0	32560	
4022	0	32592	
4023	0	32624	
4024	0	32876	
4025	0	32916	
4026	0	32716	
4027	0	32624	
4028	0	32664	
4029	0	32752	
4030	0	32866	
4031	0	33040	
4032	0	33376	
4033	0	33556	
4034	0	33504	
4035	0	33372	
4036	0	33104	
4037	0	33024	
4038	0	33036	
4039	0	33052	
4040	0	32952	
4041	0	32836	
4042	0	32928	
4043	0	33148	
4044	0	33344	
4045	0	33336	
4046	0	33256	
4047	0	33256	
4048	0	33296	
4049	0	32960	
4050	0	32544	
4051	0	32352	
4052	0	32496	
4053	0	32760	
4054	0	32960	
4055	0	33016	
4056	0	32852	
4057	0	32854	
4058	0	32996	
4059	0	33088	
4060	0	32984	
4061	0	32938	
4062	0	32936	
4063	0	33070	
4064	0	33292	
4065	0	33444	
4066	0	33552	
4067	0	33692	
4068	0	33712	
4069	0	33664	
4070	0	33656	
4071	0	33672	
4072	0	33426	
4073	0	33188	
4074	0	33116	
4075	0	33136	
4076	0	33008	
4077	0	32872	
4078	0	32880	
4079	0	33080	
4080	0	33076	
4081	0	33056	
4082	0	33140	
4083	0	33164	
4084	0	33184	
4085	0	33220	
4086	0	33184	
4087	0	33136	
4088	0	33144	
4089	0	33192	
4090	0	33152	
4091	0	33100	
4092	0	33356	
4093	0	33736	
4094	0	33964	
4095	0	33936	
4096	0	33896	
4097	0	33812	
4098	0	33854	
4099	0	34152	
4100	0	34448	
4101	0	34708	
4102	0	34716	
4103	0	34500	
4104	0	34236	
4105	0	34032	
4106	0	34076	
4107	0	33944	
4108	0	33576	
4109	0	33408	
4110	0	33344	
4111	0	33380	
4112	0	33480	
4113	0	33428	
4114	0	33516	
4115	0	33530	
4116	0	33532	
4117	0	33582	
4118	0	33744	
4119	0	33984	
4120	0	34044	
4121	0	33956	
4122	0	33876	
4123	0	33704	
4124	0	33440	
4125	0	33264	
4126	0	33316	
4127	0	33580	
4128	0	33709	
4129	0	33800	
4130	0	33964	
4131	0	34108	
4132	0	34088	
4133	0	34044	
4134	0	33900	
4135	0	33864	
4136	0	33836	
4137	0	33660	
4138	0	33400	
4139	0	33272	
4140	0	33276	
4141	0	33157	
4142	0	33136	
4143	0	33156	
4144	0	33392	
4145	0	33600	
4146	0	33772	
4147	0	33848	
4148	0	34064	
4149	0	34140	
4150	0	34072	
4151	0	33876	
4152	0	33960	
4153	0	34228	
4154	0	34228	
4155	0	34044	
4156	0	34084	
4157	0	34192	
4158	0	34132	
4159	0	34032	
4160	0	33676	
4161	0	33496	
4162	0	33636	
4163	0	33908	
4164	0	33944	
4165	0	33816	
4166	0	33524	
4167	0	33344	
4168	0	33298	
4169	0	33124	
4170	0	33000	
4171	0	33280	
4172	0	33600	
4173	0	33704	
4174	0	33720	
4175	0	33632	
4176	0	33472	
4177	0	33456	
4178	0	33556	
4179	0	33512	
4180	0	33368	
4181	0	33328	
4182	0	33388	
4183	0	33472	
4184	0	33568	
4185	0	33592	
4186	0	33578	
4187	0	33668	
4188	0	33632	
4189	0	33562	
4190	0	33652	
4191	0	33828	
4192	0	33812	
4193	0	33780	
4194	0	33876	
4195	0	33996	
4196	0	33920	
4197	0	33676	
4198	0	33380	
4199	0	33300	
4200	0	33472	
4201	0	33748	
4202	0	33872	
4203	0	33896	
4204	0	33996	
4205	0	34064	
4206	0	34040	
4207	0	33916	
4208	0	33744	
4209	0	33416	
4210	0	33272	
4211	0	33248	
4212	0	33180	
4213	0	33018	
4214	0	32992	
4215	0	32948	
4216	0	32928	
4217	0	32784	
4218	0	32848	
4219	0	33256	
4220	0	33412	
4221	0	33420	
4222	0	33320	
4223	0	33530	
4224	0	33712	
4225	0	33832	
4226	0	33952	
4227	0	33820	
4228	0	33616	
4229	0	33328	
4230	0	33344	
4231	0	33521	
4232	0	33732	
4233	0	33772	
4234	0	33584	
4235	0	33256	
4236	0	33092	
4237	0	33128	
4238	0	33148	
4239	0	33148	
4240	0	33200	
4241	0	33356	
4242	0	33460	
4243	0	33348	
4244	0	33292	
4245	0	33424	
4246	0	33552	
4247	0	33596	
4248	0	33616	
4249	0	33562	
4250	0	33348	
4251	0	33220	
4252	0	33360	
4253	0	33372	
4254	0	33424	
4255	0	33648	
4256	0	33908	
4257	0	33960	
4258	0	33764	
4259	0	33456	
4260	0	33220	
4261	0	32840	
4262	0	32488	
4263	0	32544	
4264	0	32845	
4265	0	33308	
4266	0	33484	
4267	0	33520	
4268	0	33440	
4269	0	33276	
4270	0	33236	
4271	0	33324	
4272	0	33424	
4273	0	33680	
4274	0	33916	
4275	0	33896	
4276	0	33912	
4277	0	33976	
4278	0	33828	
4279	0	33728	
4280	0	33744	
4281	0	33636	
4282	0	33424	
4283	0	33452	
4284	0	33728	
4285	0	33772	
4286	0	33700	
4287	0	33664	
4288	0	33596	
4289	0	33552	
4290	0	33644	
4291	0	33736	
4292	0	33672	
4293	0	33376	
4294	0	33112	
4295	0	32976	
4296	0	32992	
4297	0	33168	
4298	0	33240	
4299	0	33308	
4300	0	33436	
4301	0	33508	
4302	0	33468	
4303	0	33464	
4304	0	33420	
4305	0	33576	
4306	0	33668	
4307	0	33712	
4308	0	33748	
4309	0	33700	
4310	0	33604	
4311	0	33476	
4312	0	33306	
4313	0	32744	
4314	0	32424	
4315	0	32324	
4316	0	32396	
4317	0	32872	
4318	0	33432	
4319	0	33756	
4320	0	33912	
4321	0	33860	
4322	0	33732	
4323	0	33480	
4324	0	33284	
4325	0	33057	
4326	0	32852	
4327	0	32572	
4328	0	32340	
4329	0	32308	
4330	0	32336	
4331	0	32392	
4332	0	32576	
4333	0	32980	
4334	0	33188	
4335	0	33248	
4336	0	33172	
4337	0	32972	
4338	0	32696	
4339	0	32822	
4340	0	33072	
4341	0	33060	
4342	0	33080	
4343	0	33248	
4344	0	33336	
4345	0	33400	
4346	0	33488	
4347	0	33440	
4348	0	33296	
4349	0	33196	
4350	0	33101	
4351	0	33100	
4352	0	33264	
4353	0	33376	
4354	0	33428	
4355	0	33496	
4356	0	33596	
4357	0	33648	
4358	0	33620	
4359	0	33396	
4360	0	33072	
4361	0	32932	
4362	0	32944	
4363	0	33032	
4364	0	32992	
4365	0	32820	
4366	0	32664	
4367	0	32596	
4368	0	32908	
4369	0	33168	
4370	0	33268	
4371	0	33228	
4372	0	33074	
4373	0	32964	
4374	0	32876	
4375	0	32984	
4376	0	33040	
4377	0	32984	
4378	0	32992	
4379	0	32876	
4380	0	32792	
4381	0	32704	
4382	0	32404	
4383	0	32404	
4384	0	32656	
4385	0	32932	
4386	0	32962	
4387	0	32964	
4388	0	33184	
4389	0	33272	
4390	0	33332	
4391	0	33212	
4392	0	33076	
4393	0	33068	
4394	0	33312	
4395	0	33568	
4396	0	33544	
4397	0	33160	
4398	0	32838	
4399	0	32896	
4400	0	33024	
4401	0	33026	
4402	0	32976	
4403	0	33168	
4404	0	33348	
4405	0	33320	
4406	0	33080	
4407	0	32904	
4408	0	32900	
4409	0	33084	
4410	0	33224	
4411	0	33176	
4412	0	33134	
4413	0	33164	
4414	0	33224	
4415	0	33368	
4416	0	33556	
4417	0	33416	
4418	0	33256	
4419	0	33124	
4420	0	32864	
4421	0	32628	
4422	0	32744	
4423	0	32904	
4424	0	33116	
4425	0	33396	
4426	0	33372	
4427	0	33308	
4428	0	33300	
4429	0	33224	
4430	0	33216	
4431	0	33428	
4432	0	33616	
4433	0	33640	
4434	0	33456	
4435	0	33188	
4436	0	33000	
4437	0	32952	
4438	0	33068	
4439	0	33112	
4440	0	32960	
4441	0	32976	
4442	0	33212	
4443	0	33306	
4444	0	33128	
4445	0	33072	
4446	0	33172	
4447	0	33280	
4448	0	33360	
4449	0	33444	
4450	0	33352	
4451	0	33032	
4452	0	33008	
4453	0	33032	
4454	0	32912	
4455	0	32820	
4456	0	32760	
4457	0	32880	
4458	0	33208	
4459	0	33348	
4460	0	33348	
4461	0	33185	
4462	0	32940	
4463	0	32908	
4464	0	33032	
4465	0	33120	
4466	0	33074	
4467	0	33112	
4468	0	33320	
4469	0	33572	
4470	0	33456	
4471	0	33098	
4472	0	32780	
4473	0	32876	
4474	0	33040	
4475	0	33232	
4476	0	33268	
4477	0	33242	
4478	0	33168	
4479	0	32852	
4480	0	32404	
4481	0	32040	
4482	0	31962	
4483	0	32108	
4484	0	32346	
4485	0	32760	
4486	0	33096	
4487	0	33364	
4488	0	33628	
4489	0	33880	
4490	0	34100	
4491	0	34112	
4492	0	33908	
4493	0	33416	
4494	0	33188	
4495	0	33144	
4496	0	33420	
4497	0	33384	
4498	0	33270	
4499	0	33424	
4500	0	33464	
4501	0	33596	
4502	0	33684	
4503	0	33568	
4504	0	33372	
4505	0	33308	
4506	0	33208	
4507	0	32904	
4508	0	32740	
4509	0	32608	
4510	0	32696	
4511	0	32624	
4512	0	32412	
4513	0	32240	
4514	0	31836	
4515	0	31344	
4516	0	31116	
4517	0	31048	
4518	0	30924	
4519	0	30688	
4520	0	30512	
4521	0	30528	
4522	0	30520	
4523	0	30564	
4524	0	30536	
4525	0	30524	
4526	0	30604	
4527	0	30904	
4528	0	31016	
4529	0	30976	
4530	0	30896	
4531	0	30764	
4532	0	30612	
4533	0	30480	
4534	0	30432	
4535	0	30460	
4536	0	30468	
4537	0	30676	
4538	0	30892	
4539	0	30776	
4540	0	30404	
4541	0	29900	
4542	0	29492	
4543	0	29172	
4544	0	28824	
4545	0	28628	
4546	0	28466	
4547	0	28160	
4548	0	27940	
4549	0	27916	
4550	0	28032	
4551	0	28112	
4552	0	28340	
4553	0	28484	
4554	0	28344	
4555	0	28416	
4556	0	28768	
4557	0	29000	
4558	0	29096	
4559	0	29192	
4560	0	29296	
4561	0	29760	
4562	0	30261	
4563	0	30384	
4564	0	30376	
4565	0	30600	
4566	0	30748	
4567	0	30904	
4568	0	31012	
4569	0	30904	
4570	0	30816	
4571	0	30768	
4572	0	30906	
4573	0	31184	
4574	0	31648	
4575	0	31920	
4576	0	32180	
4577	0	32200	
4578	0	32068	
4579	0	32192	
4580	0	32536	
4581	0	32796	
4582	0	33020	
4583	0	33196	
4584	0	33508	
4585	0	33728	
4586	0	33718	
4587	0	33932	
4588	0	34313	
4589	0	34456	
4590	0	34548	
4591	0	34788	
4592	0	34868	
4593	0	34992	
4594	0	35104	
4595	0	35160	
4596	0	35300	
4597	0	35344	
4598	0	35244	
4599	0	35292	
4600	0	35328	
4601	0	35292	
4602	0	35400	
4603	0	35632	
4604	0	35568	
4605	0	35252	
4606	0	34888	
4607	0	34700	
4608	0	34376	
4609	0	34024	
4610	0	33904	
4611	0	34196	
4612	0	34540	
4613	0	34740	
4614	0	34736	
4615	0	34836	
4616	0	35168	
4617	0	35560	
4618	0	35768	
4619	0	35904	
4620	0	35866	
4621	0	35562	
4622	0	35168	
4623	0	35080	
4624	0	35120	
4625	0	35048	
4626	0	34936	
4627	0	35124	
4628	0	35308	
4629	0	35236	
4630	0	35132	
4631	0	34920	
4632	0	34468	
4633	0	33880	
4634	0	33412	
4635	0	33280	
4636	0	33048	
4637	0	32556	
4638	0	31754	
4639	0	30792	
4640	0	29500	
4641	0	27952	
4642	0	26492	
4643	0	25044	
4644	0	23712	
4645	0	22308	
4646	0	20674	
4647	0	18629	
4648	0	16460	
4649	0	14464	
4650	0	12380	
4651	0	10206	
4652	0	8104	
4653	0	6028	
4654	0	4010	
4655	0	2737	
4656	0	2150	
4657	0	1909	
4658	0	1847	
4659	0	1866	
4660	0	1940	
4661	0	2041	
4662	0	2149	
4663	0	2250	
4664	0	6384	
4665	0	12517	
4666	0	18294	
4667	0	23700	
4668	0	28780	
4669	0	33736	
4670	0	38580	
4671	0	43200	
4672	0	47472	
4673	0	51248	
4674	0	54720	
4675	0	57716	
4676	0	59900	
4677	0	61424	
4678	0	62712	
4679	0	63692	
4680	0	64208	
4681	0	64632	
4682	0	64880	
4683	0	64512	
4684	0	63684	
4685	0	62528	
4686	0	60704	
4687	0	58720	
4688	0	56600	
4689	0	54392	
4690	0	52040	
4691	0	49840	
4692	0	47832	
4693	0	45952	
4694	0	44184	
4695	0	42584	
4696	0	41384	
4697	0	40296	
4698	0	39396	
4699	0	38716	
4700	0	38272	
4701	0	37748	
4702	0	37184	
4703	0	36880	
4704	0	36600	
4705	0	36370	
4706	0	36272	
4707	0	36204	
4708	0	36108	
4709	0	35860	
4710	0	35792	
4711	0	35812	
4712	0	35880	
4713	0	35592	
4714	0	35166	
4715	0	34808	
4716	0	34592	
4717	0	34348	
4718	0	33988	
4719	0	33588	
4720	0	33452	
4721	0	33508	
4722	0	33450	
4723	0	33448	
4724	0	33520	
4725	0	33464	
4726	0	33220	
4727	0	33172	
4728	0	33412	
4729	0	33728	
4730	0	33872	
4731	0	33918	
4732	0	34068	
4733	0	34236	
4734	0	34340	
4735	0	34328	
4736	0	34204	
4737	0	34064	
4738	0	33808	
4739	0	33724	
4740	0	33224	
4741	0	32768	
4742	0	32720	
4743	0	32556	
4744	0	32428	
4745	0	32636	
4746	0	32896	
4747	0	33044	
4748	0	33120	
4749	0	33148	
4750	0	33472	
4751	0	33572	
4752	0	33536	
4753	0	33241	
4754	0	33032	
4755	0	32968	
4756	0	32808	
4757	0	32660	
4758	0	32568	
4759	0	32528	
4760	0	32220	
4761	0	32008	
4762	0	31912	
4763	0	32028	
4764	0	32236	
4765	0	32328	
4766	0	32324	
4767	0	32408	
4768	0	32564	
4769	0	32656	
4770	0	32424	
4771	0	32152	
4772	0	31968	
4773	0	32236	
4774	0	32460	
4775	0	32600	
4776	0	32832	
4777	0	33024	
4778	0	33020	
4779	0	33032	
4780	0	32968	
4781	0	32648	
4782	0	32468	
4783	0	32212	
4784	0	32024	
4785	0	31586	
4786	0	31360	
4787	0	31100	
4788	0	30920	
4789	0	30808	
4790	0	30988	
4791	0	31302	
4792	0	31624	
4793	0	31872	
4794	0	31968	
4795	0	32042	
4796	0	31960	
4797	0	31936	
4798	0	32192	
4799	0	32380	
4800	0	32068	
4801	0	31760	
4802	0	31672	
4803	0	31688	
4804	0	31676	
4805	0	31540	
4806	0	31324	
4807	0	30936	
4808	0	30682	
4809	0	30504	
4810	0	30400	
4811	0	30540	
4812	0	30752	
4813	0	30952	
4814	0	30968	
4815	0	30688	
4816	0	30748	
4817	0	31008	
4818	0	31204	
4819	0	31216	
4820	0	31118	
4821	0	31144	
4822	0	31116	
4823	0	31040	
4824	0	31180	
4825	0	31108	
4826	0	30756	
4827	0	30448	
4828	0	30220	
4829	0	30088	
4830	0	29888	
4831	0	29812	
4832	0	29816	
4833	0	29825	
4834	0	29864	
4835	0	30036	
4836	0	30350	
4837	0	30592	
4838	0	30720	
4839	0	30756	
4840	0	30916	
4841	0	30970	
4842	0	31076	
4843	0	31204	
4844	0	31188	
4845	0	30888	
4846	0	30676	
4847	0	30712	
4848	0	30732	
4849	0	30784	
4850	0	30816	
4851	0	30832	
4852	0	30856	
4853	0	30808	
4854	0	30860	
4855	0	30744	
4856	0	30516	
4857	0	30432	
4858	0	30560	
4859	0	31084	
4860	0	31618	
4861	0	31912	
4862	0	32136	
4863	0	32196	
4864	0	32200	
4865	0	32152	
4866	0	32020	
4867	0	32140	
4868	0	32232	
4869	0	32000	
4870	0	31652	
4871	0	31364	
4872	0	31384	
4873	0	31624	
4874	0	31880	
4875	0	32024	
4876	0	32324	
4877	0	32548	
4878	0	32706	
4879	0	33056	
4880	0	33340	
4881	0	33624	
4882	0	33896	
4883	0	33980	
4884	0	33788	
4885	0	33404	
4886	0	33060	
4887	0	33208	
4888	0	33370	
4889	0	33504	
4890	0	33748	
4891	0	34012	
4892	0	34348	
4893	0	34672	
4894	0	34764	
4895	0	34712	
4896	0	34692	
4897	0	34740	
4898	0	34644	
4899	0	34344	
4900	0	34314	
4901	0	34297	
4902	0	34284	
4903	0	34372	
4904	0	34560	
4905	0	34528	
4906	0	34344	
4907	0	34420	
4908	0	34628	
4909	0	34728	
4910	0	34712	
4911	0	34680	
4912	0	34588	
4913	0	34720	
4914	0	34952	
4915	0	35080	
4916	0	34968	
4917	0	34728	
4918	0	34280	
4919	0	33736	
4920	0	33469	
4921	0	33352	
4922	0	33264	
4923	0	33400	
4924	0	33592	
4925	0	33636	
4926	0	33872	
4927	0	34376	
4928	0	34876	
4929	0	35104	
4930	0	34968	
4931	0	34628	
4932	0	34200	
4933	0	33900	
4934	0	33768	
4935	0	33752	
4936	0	33712	
4937	0	33812	
4938	0	34028	
4939	0	34336	
4940	0	34668	
4941	0	34732	
4942	0	34596	
4943	0	34600	
4944	0	34664	
4945	0	34768	
4946	0	34588	
4947	0	34352	
4948	0	33894	
4949	0	33420	
4950	0	33364	
4951	0	33488	
4952	0	33688	
4953	0	33856	
4954	0	34106	
4955	0	34484	
4956	0	34816	
4957	0	34912	
4958	0	34904	
4959	0	34924	
4960	0	34652	
4961	0	34252	
4962	0	33860	
4963	0	33562	
4964	0	33612	
4965	0	33648	
4966	0	33724	
4967	0	33722	
4968	0	33830	
4969	0	34048	
4970	0	34060	
4971	0	33952	
4972	0	33820	
4973	0	34148	
4974	0	34452	
4975	0	34400	
4976	0	34204	
4977	0	34108	
4978	0	34176	
4979	0	34220	
4980	0	34164	
4981	0	33952	
4982	0	33728	
4983	0	33360	
4984	0	33144	
4985	0	33112	
4986	0	33180	
4987	0	33336	
4988	0	33588	
4989	0	33874	
4990	0	33920	
4991	0	33928	
4992	0	33692	
4993	0	33272	
4994	0	32936	
4995	0	32864	
4996	0	32884	
4997	0	33008	
4998	0	33084	
4999	0	33160	
5000	0	33456	
5001	0	33780	
5002	0	33808	
5003	0	33684	
5004	0	33632	
5005	0	33676	
5006	0	34072	
5007	0	34244	
5008	0	34008	
5009	0	33496	
5010	0	33084	
5011	0	32760	
5012	0	32512	
5013	0	32194	
5014	0	32112	
5015	0	32192	
5016	0	32356	
5017	0	32664	
5018	0	33016	
5019	0	33264	
5020	0	33260	
5021	0	33220	
5022	0	33296	
5023	0	33392	
5024	0	33268	
5025	0	33060	
5026	0	32800	
5027	0	32692	
5028	0	32856	
5029	0	33028	
5030	0	33040	
5031	0	32980	
5032	0	33008	
5033	0	33002	
5034	0	33000	
5035	0	32998	
5036	0	33104	
5037	0	33189	
5038	0	33344	
5039	0	33424	
5040	0	33520	
5041	0	33584	
5042	0	33392	
5043	0	33208	
5044	0	33004	
5045	0	33064	
5046	0	33416	
5047	0	33624	
5048	0	33624	
5049	0	33876	
5050	0	34232	
5051	0	34404	
5052	0	34348	
5053	0	34330	
5054	0	34248	
5055	0	33628	
5056	0	33074	
5057	0	32948	
5058	0	33016	
5059	0	33136	
5060	0	33412	
5061	0	33504	
5062	0	33488	
5063	0	33436	
5064	0	33672	
5065	0	33936	
5066	0	33976	
5067	0	33832	
5068	0	33840	
5069	0	34120	
5070	0	34306	
5071	0	34372	
5072	0	34300	
5073	0	34316	
5074	0	34416	
5075	0	34452	
5076	0	34400	
5077	0	34296	
5078	0	33944	
5079	0	33644	
5080	0	33724	
5081	0	33924	
5082	0	34080	
5083	0	34240	
5084	0	34528	
5085	0	34580	
5086	0	34480	
5087	0	34408	
5088	0	34416	
5089	0	34388	
5090	0	34364	
5091	0	34400	
5092	0	34392	
5093	0	34520	
5094	0	34584	
5095	0	34756	
5096	0	34864	
5097	0	34696	
5098	0	34428	
5099	0	34136	
5100	0	34008	
5101	0	34028	
5102	0	34156	
5103	0	34358	
5104	0	34700	
5105	0	35172	
5106	0	35320	
5107	0	35092	
5108	0	35088	
5109	0	35124	
5110	0	35144	
5111	0	35020	
5112	0	34848	
5113	0	34816	
5114	0	34804	
5115	0	34624	
5116	0	34504	
5117	0	34512	
5118	0	34684	
5119	0	34872	
5120	0	34888	
5121	0	34792	
5122	0	34804	
5123	0	34808	
5124	0	34856	
5125	0	34892	
5126	0	34900	
5127	0	34884	
5128	0	34648	
5129	0	34536	
5130	0	34496	
5131	0	34520	
5132	0	34540	
5133	0	34716	
5134	0	34986	
5135	0	35172	
5136	0	35380	
5137	0	35564	
5138	0	35788	
5139	0	35936	
5140	0	35960	
5141	0	35748	
5142	0	35260	
5143	0	34688	
5144	0	34216	
5145	0	34148	
5146	0	34124	
5147	0	34052	
5148	0	33914	
5149	0	33576	
5150	0	33466	
5151	0	33640	
5152	0	33892	
5153	0	34164	
5154	0	34272	
5155	0	34404	
5156	0	34824	
5157	0	35112	
5158	0	35068	
5159	0	34980	
5160	0	34732	
5161	0	34732	
5162	0	34856	
5163	0	35144	
5164	0	35444	
5165	0	35600	
5166	0	35476	
5167	0	35348	
5168	0	35112	
5169	0	35124	
5170	0	35276	
5171	0	35496	
5172	0	35644	
5173	0	35476	
5174	0	35100	
5175	0	34708	
5176	0	34680	
5177	0	34616	
5178	0	34473	
5179	0	34392	
5180	0	34416	
5181	0	34484	
5182	0	34420	
5183	0	34196	
5184	0	34068	
5185	0	34208	
5186	0	34472	
5187	0	34620	
5188	0	34616	
5189	0	34512	
5190	0	34448	
5191	0	34388	
5192	0	34176	
5193	0	34016	
5194	0	33906	
5195	0	33788	
5196	0	33912	
5197	0	34066	
5198	0	34149	
5199	0	34060	
5200	0	34024	
5201	0	34120	
5202	0	34284	
5203	0	34372	
5204	0	34184	
5205	0	34250	
5206	0	34596	
5207	0	34812	
5208	0	34856	
5209	0	34804	
5210	0	34616	
5211	0	34480	
5212	0	34224	
5213	0	34024	
5214	0	34020	
5215	0	34104	
5216	0	34232	
5217	0	34036	
5218	0	33964	
5219	0	33824	
5220	0	33788	
5221	0	33788	
5222	0	33792	
5223	0	33780	
5224	0	34092	
5225	0	34394	
5226	0	34320	
5227	0	34004	
5228	0	33516	
5229	0	33264	
5230	0	33372	
5231	0	33828	
5232	0	33880	
5233	0	33624	
5234	0	33156	
5235	0	32876	
5236	0	33108	
5237	0	33618	
5238	0	33832	
5239	0	33896	
5240	0	33868	
5241	0	34220	
5242	0	34304	
5243	0	34032	
5244	0	33604	
5245	0	33408	
5246	0	33024	
5247	0	32700	
5248	0	32796	
5249	0	33072	
5250	0	33208	
5251	0	33396	
5252	0	33232	
5253	0	33068	
5254	0	33088	
5255	0	33352	
5256	0	33816	
5257	0	33988	
5258	0	33904	
5259	0	33538	
5260	0	33752	
5261	0	33842	
5262	0	33760	
5263	0	33444	
5264	0	32804	
5265	0	33024	
5266	0	33184	
5267	0	32944	
5268	0	32816	
5269	0	33164	
5270	0	33248	
5271	0	33480	
5272	0	33562	
5273	0	33500	
5274	0	33520	
5275	0	33592	
5276	0	33488	
5277	0	33300	
5278	0	33160	
5279	0	33128	
5280	0	33020	
5281	0	32704	
5282	0	32640	
5283	0	32588	
5284	0	32448	
5285	0	32464	
5286	0	32688	
5287	0	32920	
5288	0	33024	
5289	0	33312	
5290	0	33468	
5291	0	33592	
5292	0	33640	
5293	0	33460	
5294	0	33316	
5295	0	33240	
5296	0	33060	
5297	0	32832	
5298	0	32576	
5299	0	32220	
5300	0	31832	
5301	0	31520	
5302	0	31540	
5303	0	31600	
5304	0	31892	
5305	0	32184	
5306	0	32368	
5307	0	32384	
5308	0	32296	
5309	0	32452	
5310	0	32584	
5311	0	32364	
5312	0	32400	
5313	0	32444	
5314	0	32232	
5315	0	32044	
5316	0	31948	
5317	0	32192	
5318	0	32504	
5319	0	32680	
5320	0	32816	
5321	0	32500	
5322	0	32220	
5323	0	31960	
5324	0	31742	
5325	0	31514	
5326	0	31408	
5327	0	31660	
5328	0	32056	
5329	0	32120	
5330	0	32028	
5331	0	32178	
5332	0	32468	
5333	0	32576	
5334	0	32776	
5335	0	32960	
5336	0	33064	
5337	0	32884	
5338	0	32428	
5339	0	32128	
5340	0	31936	
5341	0	31968	
5342	0	31964	
5343	0	32200	
5344	0	32236	
5345	0	32064	
5346	0	32020	
5347	0	32288	
5348	0	32288	
5349	0	32136	
5350	0	31970	
5351	0	31808	
5352	0	32060	
5353	0	32440	
5354	0	32756	
5355	0	32826	
5356	0	32840	
5357	0	32740	
5358	0	32320	
5359	0	31928	
5360	0	31720	
5361	0	31764	
5362	0	31652	
5363	0	31448	
5364	0	31480	
5365	0	31492	
5366	0	31432	
5367	0	31340	
5368	0	31220	
5369	0	31164	
5370	0	31164	
5371	0	31280	
5372	0	31236	
5373	0	30984	
5374	0	30744	
5375	0	30456	
5376	0	30456	
5377	0	30772	
5378	0	31032	
5379	0	31044	
5380	0	30834	
5381	0	30592	
5382	0	30280	
5383	0	30268	
5384	0	30168	
5385	0	30192	
5386	0	30156	
5387	0	30056	
5388	0	30048	
5389	0	30140	
5390	0	30068	
5391	0	29948	
5392	0	29760	
5393	0	29661	
5394	0	29522	
5395	0	29340	
5396	0	28880	
5397	0	28352	
5398	0	27936	
5399	0	27788	
5400	0	27756	
5401	0	27376	
5402	0	26952	
5403	0	26912	
5404	0	26928	
5405	0	26874	
5406	0	26832	
5407	0	27076	
5408	0	27220	
5409	0	27368	
5410	0	27480	
5411	0	27700	
5412	0	28192	
5413	0	28672	
5414	0	29000	
5415	0	29424	
5416	0	29546	
5417	0	29572	
5418	0	29348	
5419	0	29184	
5420	0	29384	
5421	0	29680	
5422	0	30068	
5423	0	30318	
5424	0	30480	
5425	0	30760	
5426	0	31224	
5427	0	31614	
5428	0	31784	
5429	0	31960	
5430	0	32024	
5431	0	31884	
5432	0	31700	
5433	0	31941	
5434	0	32502	
5435	0	32704	
5436	0	32708	
5437	0	32898	
5438	0	33188	
5439	0	33396	
5440	0	33416	
5441	0	33466	
5442	0	33248	
5443	0	33094	
5444	0	33104	
5445	0	33352	
5446	0	33704	
5447	0	34148	
5448	0	34532	
5449	0	34884	
5450	0	35024	
5451	0	35308	
5452	0	35580	
5453	0	35668	
5454	0	35656	
5455	0	35768	
5456	0	35740	
5457	0	35568	
5458	0	35316	
5459	0	35168	
5460	0	34944	
5461	0	34824	
5462	0	34788	
5463	0	34676	
5464	0	34384	
5465	0	34248	
5466	0	34256	
5467	0	34320	
5468	0	34440	
5469	0	34680	
5470	0	34864	
5471	0	34932	
5472	0	35112	
5473	0	35124	
5474	0	35128	
5475	0	35272	
5476	0	35196	
5477	0	35220	
5478	0	35256	
5479	0	35412	
5480	0	35390	
5481	0	35204	
5482	0	35088	
5483	0	34984	
5484	0	34764	
5485	0	34532	
5486	0	34396	
5487	0	34316	
5488	0	34300	
5489	0	34284	
5490	0	34044	
5491	0	33612	
5492	0	33248	
5493	0	32844	
5494	0	32288	
5495	0	31744	
5496	0	31200	
5497	0	30424	
5498	0	29256	
5499	0	28012	
5500	0	26376	
5501	0	24800	
5502	0	23176	
5503	0	21548	
5504	0	19508	
5505	0	17204	
5506	0	14938	
5507	0	12764	
5508	0	10592	
5509	0	8366	
5510	0	6089	
5511	0	3877	
5512	0	2072	
5513	0	1204	
5514	0	819	
5515	0	691	
5516	0	679	
5517	0	736	
5518	0	830	
5519	0	933	
5520	0	1052	
5521	0	1731	
5522	0	8185	
5523	0	14388	
5524	0	20082	
5525	0	25584	
5526	0	30888	
5527	0	35812	
5528	0	40640	
5529	0	45104	
5530	0	49240	
5531	0	52976	
5532	0	56240	
5533	0	58704	
5534	0	60388	
5535	0	61808	
5536	0	63144	
5537	0	63996	
5538	0	64504	
5539	0	64776	
5540	0	64688	
5541	0	64308	
5542	0	63280	
5543	0	61880	
5544	0	60260	
5545	0	58472	
5546	0	56244	
5547	0	53744	
5548	0	51500	
5549	0	49424	
5550	0	47576	
5551	0	45928	
5552	0	44320	
5553	0	42852	
5554	0	41656	
5555	0	40724	
5556	0	40028	
5557	0	39188	
5558	0	38348	
5559	0	37496	
5560	0	36616	
5561	0	36016	
5562	0	35620	
5563	0	35400	
5564	0	35288	
5565	0	35180	
5566	0	35006	
5567	0	34901	
5568	0	34744	
5569	0	34728	
5570	0	34856	
5571	0	34980	
5572	0	34772	
5573	0	34600	
5574	0	34384	
5575	0	34072	
5576	0	33870	
5577	0	33816	
5578	0	33808	
5579	0	33892	
5580	0	33970	
5581	0	34068	
5582	0	34104	
5583	0	34096	
5584	0	34004	
5585	0	33816	
5586	0	33568	
5587	0	33306	
5588	0	33108	
5589	0	32856	
5590	0	32760	
5591	0	32620	
5592	0	32628	
5593	0	32812	
5594	0	32784	
5595	0	32624	
5596	0	32472	
5597	0	32340	
5598	0	32408	
5599	0	32508	
5600	0	32768	
5601	0	32984	
5602	0	33148	
5603	0	32992	
5604	0	32736	
5605	0	32768	
5606	0	32912	
5607	0	32800	
5608	0	32344	
5609	0	32024	
5610	0	31982	
5611	0	31861	
5612	0	31828	
5613	0	31876	
5614	0	31876	
5615	0	31936	
5616	0	32096	
5617	0	32416	
5618	0	32712	
5619	0	32748	
5620	0	32740	
5621	0	32644	
5622	0	32544	
5623	0	32224	
5624	0	31968	
5625	0	31760	
5626	0	31552	
5627	0	31592	
5628	0	31720	
5629	0	31808	
5630	0	31768	
5631	0	31760	
5632	0	31912	
5633	0	31996	
5634	0	32154	
5635	0	32348	
5636	0	32309	
5637	0	32004	
5638	0	31636	
5639	0	31516	
5640	0	31540	
5641	0	31512	
5642	0	31492	
5643	0	31464	
5644	0	31604	
5645	0	31524	
5646	0	31272	
5647	0	31260	
5648	0	31396	
5649	0	31476	
5650	0	31752	
5651	0	32040	
5652	0	31928	
5653	0	31688	
5654	0	31768	
5655	0	31804	
5656	0	31820	
5657	0	31644	
5658	0	31420	
5659	0	31220	
5660	0	30980	
5661	0	30792	
5662	0	30752	
5663	0	30708	
5664	0	30720	
5665	0	30872	
5666	0	30870	
5667	0	30608	
5668	0	30184	
5669	0	29908	
5670	0	29786	
5671	0	29800	
5672	0	29697	
5673	0	29852	
5674	0	30032	
5675	0	30050	
5676	0	30364	
5677	0	30588	
5678	0	30868	
5679	0	31180	
5680	0	31336	
5681	0	31304	
5682	0	31268	
5683	0	31004	
5684	0	30768	
5685	0	30480	
5686	0	30136	
5687	0	29776	
5688	0	29488	
5689	0	29233	
5690	0	29160	
5691	0	29136	
5692	0	29188	
5693	0	29268	
5694	0	29424	
5695	0	29464	
5696	0	29496	
5697	0	29748	
5698	0	29696	
5699	0	29316	
5700	0	29265	
5701	0	29416	
5702	0	29640	
5703	0	29892	
5704	0	30116	
5705	0	30152	
5706	0	30084	
5707	0	30036	
5708	0	29960	
5709	0	29988	
5710	0	30077	
5711	0	30208	
5712	0	30440	
5713	0	30660	
5714	0	30596	
5715	0	30324	
5716	0	30028	
5717	0	29692	
5718	0	29684	
5719	0	30040	
5720	0	30444	
5721	0	30712	
5722	0	30670	
5723	0	30472	
5724	0	30416	
5725	0	30384	
5726	0	30552	
5727	0	30672	
5728	0	30816	
5729	0	30944	
5730	0	31277	
5731	0	31580	
5732	0	31756	
5733	0	32044	
5734	0	32304	
5735	0	32528	
5736	0	32488	
5737	0	32180	
5738	0	32176	
5739	0	32256	
5740	0	32500	
5741	0	32688	
5742	0	32820	
5743	0	32960	
5744	0	32944	
5745	0	33088	
5746	0	33332	
5747	0	33668	
5748	0	33888	
5749	0	33880	
5750	0	33772	
5751	0	33664	
5752	0	33704	
5753	0	33692	
5754	0	33820	
5755	0	34096	
5756	0	34124	
5757	0	34116	
5758	0	34140	
5759	0	34400	
5760	0	34692	
5761	0	34824	
5762	0	34792	
5763	0	34586	
5764	0	34492	
5765	0	34666	
5766	0	34840	
5767	0	34792	
5768	0	34536	
5769	0	34496	
5770	0	34704	
5771	0	34912	
5772	0	35192	
5773	0	35148	
5774	0	35256	
5775	0	35572	
5776	0	35632	
5777	0	35440	
5778	0	35288	
5779	0	34980	
5780	0	34660	
5781	0	34400	
5782	0	34196	
5783	0	34136	
5784	0	34300	
5785	0	34472	
5786	0	34440	
5787	0	34412	
5788	0	34456	
5789	0	34732	
5790	0	34936	
5791	0	35016	
5792	0	35372	
5793	0	35680	
5794	0	35676	
5795	0	35640	
5796	0	35768	
5797	0	35654	
5798	0	35470	
5799	0	35272	
5800	0	35104	
5801	0	35040	
5802	0	35236	
5803	0	35292	
5804	0	35256	
5805	0	35316	
5806	0	35320	
5807	0	35632	
5808	0	35908	
5809	0	36052	
5810	0	36136	
5811	0	35860	
5812	0	35588	
5813	0	35512	
5814	0	35568	
5815	0	35524	
5816	0	35500	
5817	0	35482	
5818	0	35220	
5819	0	35112	
5820	0	35152	
5821	0	35264	
5822	0	35220	
5823	0	35024	
5824	0	35040	
5825	0	35196	
5826	0	35436	
5827	0	35796	
5828	0	35944	
5829	0	35964	
5830	0	35908	
5831	0	35816	
5832	0	35876	
5833	0	35828	
5834	0	35760	
5835	0	35832	
5836	0	35576	
5837	0	35184	
5838	0	35200	
5839	0	35324	
5840	0	35164	
5841	0	34892	
5842	0	34684	
5843	0	34844	
5844	0	34932	
5845	0	34764	
5846	0	34572	
5847	0	34608	
5848	0	34682	
5849	0	34688	
5850	0	34728	
5851	0	34692	
5852	0	34672	
5853	0	34676	
5854	0	34772	
5855	0	34904	
5856	0	34880	
5857	0	34818	
5858	0	34904	
5859	0	34968	
5860	0	34776	
5861	0	34556	
5862	0	34472	
5863	0	34316	
5864	0	34238	
5865	0	34232	
5866	0	34400	
5867	0	34260	
5868	0	34102	
5869	0	34096	
5870	0	33992	
5871	0	33936	
5872	0	33960	
5873	0	33928	
5874	0	33860	
5875	0	33769	
5876	0	33556	
5877	0	33516	
5878	0	33549	
5879	0	33584	
5880	0	33708	
5881	0	33976	
5882	0	33980	
5883	0	33646	
5884	0	33468	
5885	0	33520	
5886	0	33464	
5887	0	33228	
5888	0	33200	
5889	0	33356	
5890	0	33588	
5891	0	33652	
5892	0	33744	
5893	0	33664	
5894	0	33760	
5895	0	33932	
5896	0	34144	
5897	0	34216	
5898	0	34112	
5899	0	34232	
5900	0	34312	
5901	0	34212	
5902	0	34068	
5903	0	34116	
5904	0	34116	
5905	0	33928	
5906	0	33840	
5907	0	33656	
5908	0	33460	
5909	0	33340	
5910	0	33332	
5911	0	33460	
5912	0	33660	
5913	0	33914	
5914	0	34056	
5915	0	34036	
5916	0	34076	
5917	0	34268	
5918	0	34424	
5919	0	34428	
5920	0	34368	
5921	0	34320	
5922	0	34270	
5923	0	34336	
5924	0	34264	
5925	0	34284	
5926	0	34456	
5927	0	34604	
5928	0	34748	
5929	0	34516	
5930	0	34468	
5931	0	34284	
5932	0	34026	
5933	0	34092	
5934	0	34176	
5935	0	34100	
5936	0	33744	
5937	0	33640	
5938	0	33808	
5939	0	33824	
5940	0	33762	
5941	0	33776	
5942	0	33736	
5943	0	33852	
5944	0	34028	
5945	0	34244	
5946	0	34504	
5947	0	34580	
5948	0	34584	
5949	0	34672	
5950	0	34724	
5951	0	34532	
5952	0	34106	
5953	0	33956	
5954	0	33848	
5955	0	34072	
5956	0	34412	
5957	0	34600	
5958	0	34712	
5959	0	34872	
5960	0	34760	
5961	0	34720	
5962	0	34766	
5963	0	34800	
5964	0	34740	
5965	0	34900	
5966	0	35096	
5967	0	35012	
5968	0	34976	
5969	0	35064	
5970	0	35120	
5971	0	34852	
5972	0	34320	
5973	0	33940	
5974	0	33848	
5975	0	33892	
5976	0	33984	
5977	0	34180	
5978	0	34296	
5979	0	34404	
5980	0	34328	
5981	0	34112	
5982	0	34008	
5983	0	33936	
5984	0	33924	
5985	0	33880	
5986	0	33928	
5987	0	34018	
5988	0	34252	
5989	0	34216	
5990	0	34148	
5991	0	34180	
5992	0	34396	
5993	0	34684	
5994	0	34988	
5995	0	35188	
5996	0	35204	
5997	0	35176	
5998	0	35044	
5999	0	35008	
6000	0	35058	
6001	0	34824	
6002	0	34532	
6003	0	34292	
6004	0	34392	
6005	0	34476	
6006	0	34220	
6007	0	34140	
6008	0	34276	
6009	0	34164	
6010	0	33900	
6011	0	33752	
6012	0	33560	
6013	0	33408	
6014	0	33420	
6015	0	33500	
6016	0	33512	
6017	0	33712	
6018	0	34032	
6019	0	34096	
6020	0	34008	
6021	0	34112	
6022	0	34272	
6023	0	34512	
6024	0	34784	
6025	0	34802	
6026	0	34732	
6027	0	34484	
6028	0	34320	
6029	0	34344	
6030	0	34330	
6031	0	34304	
6032	0	34412	
6033	0	34556	
6034	0	34538	
6035	0	34288	
6036	0	34168	
6037	0	34000	
6038	0	33713	
6039	0	33480	
6040	0	33464	
6041	0	33466	
6042	0	33336	
6043	0	33260	
6044	0	33388	
6045	0	33680	
6046	0	33916	
6047	0	33956	
6048	0	33924	
6049	0	33996	
6050	0	34164	
6051	0	34460	
6052	0	34468	
6053	0	34348	
6054	0	34342	
6055	0	34336	
6056	0	34260	
6057	0	33961	
6058	0	33800	
6059	0	33716	
6060	0	33772	
6061	0	33856	
6062	0	33756	
6063	0	33830	
6064	0	33860	
6065	0	34040	
6066	0	34236	
6067	0	34208	
6068	0	34208	
6069	0	34248	
6070	0	34116	
6071	0	34120	
6072	0	34264	
6073	0	34480	
6074	0	34512	
6075	0	34592	
6076	0	34588	
6077	0	34636	
6078	0	34714	
6079	0	34800	
6080	0	34856	
6081	0	34832	
6082	0	34564	
6083	0	34392	
6084	0	34220	
6085	0	33968	
6086	0	33686	
6087	0	33516	
6088	0	33688	
6089	0	33804	
6090	0	33901	
6091	0	34044	
6092	0	34132	
6093	0	34096	
6094	0	34092	
6095	0	34176	
6096	0	34228	
6097	0	33864	
6098	0	33628	
6099	0	33841	
6100	0	33984	
6101	0	33928	
6102	0	33628	
6103	0	33532	
6104	0	33660	
6105	0	33912	
6106	0	34140	
6107	0	34128	
6108	0	34020	
6109	0	33912	
6110	0	34116	
6111	0	34164	
6112	0	34184	
6113	0	34284	
6114	0	34400	
6115	0	34676	
6116	0	34896	
6117	0	34800	
6118	0	34636	
6119	0	34488	
6120	0	34368	
6121	0	34096	
6122	0	34056	
6123	0	34376	
6124	0	34480	
6125	0	34408	
6126	0	34136	
6127	0	33784	
6128	0	33593	
6129	0	33560	
6130	0	33448	
6131	0	33424	
6132	0	33568	
6133	0	33512	
6134	0	33600	
6135	0	33760	
6136	0	33864	
6137	0	33948	
6138	0	33964	
6139	0	33836	
6140	0	33736	
6141	0	33744	
6142	0	33768	
6143	0	34064	
6144	0	34352	
6145	0	34516	
6146	0	34380	
6147	0	34124	
6148	0	33896	
6149	0	33612	
6150	0	33156	
6151	0	32826	
6152	0	32780	
6153	0	32708	
6154	0	32876	
6155	0	33244	
6156	0	33572	
6157	0	33688	
6158	0	33652	
6159	0	33596	
6160	0	33488	
6161	0	33360	
6162	0	33368	
6163	0	33404	
6164	0	33272	
6165	0	33020	
6166	0	32936	
6167	0	33232	
6168	0	33504	
6169	0	33520	
6170	0	33568	
6171	0	33936	
6172	0	34080	
6173	0	34144	
6174	0	34152	
6175	0	34204	
6176	0	34160	
6177	0	34112	
6178	0	34112	
6179	0	33952	
6180	0	33716	
6181	0	33530	
6182	0	33400	
6183	0	33352	
6184	0	33360	
6185	0	33432	
6186	0	33328	
6187	0	33036	
6188	0	32688	
6189	0	32444	
6190	0	32252	
6191	0	31860	
6192	0	31720	
6193	0	31696	
6194	0	31640	
6195	0	31420	
6196	0	31260	
6197	0	31120	
6198	0	31096	
6199	0	31144	
6200	0	31268	
6201	0	31564	
6202	0	31612	
6203	0	31300	
6204	0	31086	
6205	0	30980	
6206	0	30856	
6207	0	30800	
6208	0	30760	
6209	0	30752	
6210	0	30728	
6211	0	30756	
6212	0	30520	
6213	0	30292	
6214	0	30164	
6215	0	30100	
6216	0	30288	
6217	0	30152	
6218	0	29844	
6219	0	29656	
6220	0	29636	
6221	0	29676	
6222	0	29536	
6223	0	29240	
6224	0	28832	
6225	0	28348	
6226	0	27984	
6227	0	27736	
6228	0	27560	
6229	0	27724	
6230	0	27870	
6231	0	28024	
6232	0	28084	
6233	0	28232	
6234	0	28328	
6235	0	28548	
6236	0	29028	
6237	0	29680	
6238	0	30332	
6239	0	30796	
6240	0	30856	
6241	0	30664	
6242	0	30428	
6243	0	30504	
6244	0	30748	
6245	0	30748	
6246	0	30792	
6247	0	31026	
6248	0	31224	
6249	0	31244	
6250	0	31200	
6251	0	31216	
6252	0	31524	
6253	0	31836	
6254	0	31976	
6255	0	32076	
6256	0	32220	
6257	0	32204	
6258	0	32096	
6259	0	32000	
6260	0	32024	
6261	0	32232	
6262	0	32556	
6263	0	32964	
6264	0	33204	
6265	0	33288	
6266	0	33368	
6267	0	33420	
6268	0	33428	
6269	0	33600	
6270	0	33956	
6271	0	34292	
6272	0	34684	
6273	0	35036	
6274	0	35480	
6275	0	35704	
6276	0	35684	
6277	0	35724	
6278	0	35536	
6279	0	35328	
6280	0	35424	
6281	0	35656	
6282	0	35728	
6283	0	35604	
6284	0	35484	
6285	0	35496	
6286	0	35836	
6287	0	36084	
6288	0	36140	
6289	0	36100	
6290	0	36052	
6291	0	36000	
6292	0	35648	
6293	0	35400	
6294	0	35200	
6295	0	35024	
6296	0	34912	
6297	0	35000	
6298	0	35076	
6299	0	35136	
6300	0	35050	
6301	0	34932	
6302	0	34820	
6303	0	34904	
6304	0	34932	
6305	0	34976	
6306	0	34828	
6307	0	34676	
6308	0	34817	
6309	0	35092	
6310	0	35208	
6311	0	35236	
6312	0	35476	
6313	0	35664	
6314	0	35408	
6315	0	34996	
6316	0	34472	
6317	0	33712	
6318	0	33024	
6319	0	32408	
6320	0	31548	
6321	0	30584	
6322	0	29472	
6323	0	28176	
6324	0	26512	
6325	0	24692	
6326	0	22976	
6327	0	21312	
6328	0	19552	
6329	0	17568	
6330	0	15384	
6331	0	13240	
6332	0	11148	
6333	0	8911	
6334	0	6680	
6335	0	4480	
6336	0	2175	
6337	0	369	
6338	0	16	
6339	0	14	
6340	0	15	
6341	0	14	
6342	0	14	
6343	0	15	
6344	0	15	
6345	0	15	
6346	0	6756	
6347	0	13138	
6348	0	19324	
6349	0	24960	
6350	0	29988	
6351	0	34376	
6352	0	38856	
6353	0	43444	
6354	0	47792	
6355	0	51616	
6356	0	55156	
6357	0	58056	
6358	0	60128	
6359	0	61824	
6360	0	62804	
6361	0	63248	
6362	0	63416	
6363	0	63460	
6364	0	63424	
6365	0	63348	
6366	0	63240	
6367	0	63104	
6368	0	60548	
6369	0	58032	
6370	0	55668	
6371	0	53236	
6372	0	50916	
6373	0	49060	
6374	0	47360	
6375	0	45776	
6376	0	44192	
6377	0	42732	
6378	0	41548	
6379	0	40480	
6380	0	39448	
6381	0	38556	
6382	0	37800	
6383	0	37144	
6384	0	36712	
6385	0	36472	
6386	0	36176	
6387	0	36056	
6388	0	35884	
6389	0	35784	
6390	0	35576	
6391	0	35228	
6392	0	35188	
6393	0	35248	
6394	0	34980	
6395	0	34640	
6396	0	34532	
6397	0	34656	
6398	0	34684	
6399	0	34552	
6400	0	34296	
6401	0	34144	
6402	0	34076	
6403	0	34024	
6404	0	34108	
6405	0	34112	
6406	0	34088	
6407	0	34148	
6408	0	34104	
6409	0	33884	
6410	0	33920	
6411	0	34060	
6412	0	33952	
6413	0	33680	
6414	0	33548	
6415	0	33458	
6416	0	33588	
6417	0	33624	
6418	0	33512	
6419	0	33342	
6420	0	33268	
6421	0	33100	
6422	0	33056	
6423	0	32980	
6424	0	32944	
6425	0	32904	
6426	0	32836	
6427	0	32760	
6428	0	32924	
6429	0	33144	
6430	0	33276	
6431	0	33306	
6432	0	32960	
6433	0	32752	
6434	0	32620	
6435	0	32408	
6436	0	32344	
6437	0	32372	
6438	0	32572	
6439	0	32580	
6440	0	32636	
6441	0	32692	
6442	0	32792	
6443	0	32960	
6444	0	33210	
6445	0	33188	
6446	0	32816	
6447	0	32422	
6448	0	32360	
6449	0	32440	
6450	0	32492	
6451	0	32360	
6452	0	32324	
6453	0	32308	
6454	0	32220	
6455	0	32126	
6456	0	32136	
6457	0	32120	
6458	0	31768	
6459	0	31420	
6460	0	31644	
6461	0	31984	
6462	0	31916	
6463	0	31632	
6464	0	31556	
6465	0	31448	
6466	0	31256	
6467	0	31306	
6468	0	31356	
6469	0	31368	
6470	0	31512	
6471	0	31676	
6472	0	31774	
6473	0	31520	
6474	0	31272	
6475	0	31276	
6476	0	31136	
6477	0	31108	
6478	0	31168	
6479	0	31212	
6480	0	31128	
6481	0	31008	
6482	0	31072	
6483	0	31248	
6484	0	31324	
6485	0	31218	
6486	0	31020	
6487	0	30784	
6488	0	30520	
6489	0	30336	
6490	0	30136	
6491	0	30120	
6492	0	30404	
6493	0	30488	
6494	0	30308	
6495	0	30140	
6496	0	29908	
6497	0	29816	
6498	0	29718	
6499	0	29496	
6500	0	29408	
6501	0	29370	
6502	0	29272	
6503	0	29092	
6504	0	29164	
6505	0	29496	
6506	0	29640	
6507	0	29396	
6508	0	29362	
6509	0	29154	
6510	0	28988	
6511	0	29040	
6512	0	28980	
6513	0	28860	
6514	0	29020	
6515	0	29380	
6516	0	29656	
6517	0	29680	
6518	0	29408	
6519	0	29112	
6520	0	28904	
6521	0	28588	
6522	0	28228	
6523	0	28028	
6524	0	28180	
6525	0	28584	
6526	0	28688	
6527	0	28856	
6528	0	29156	
6529	0	29336	
6530	0	29472	
6531	0	29572	
6532	0	29768	
6533	0	29760	
6534	0	29528	
6535	0	29368	
6536	0	29364	
6537	0	29210	
6538	0	29080	
6539	0	28896	
6540	0	28713	
6541	0	29206	
6542	0	29900	
6543	0	30256	
6544	0	30520	
6545	0	30744	
6546	0	30704	
6547	0	30352	
6548	0	30272	
6549	0	29968	
6550	0	29800	
6551	0	29816	
6552	0	29772	
6553	0	29816	
6554	0	29660	
6555	0	29588	
6556	0	29880	
6557	0	30136	
6558	0	30024	
6559	0	29880	
6560	0	29816	
6561	0	29768	
6562	0	29960	
6563	0	30202	
6564	0	30516	
6565	0	30844	
6566	0	30876	
6567	0	30956	
6568	0	31276	
6569	0	31608	
6570	0	31836	
6571	0	31788	
6572	0	31636	
6573	0	31784	
6574	0	32100	
6575	0	32352	
6576	0	32536	
6577	0	32792	
6578	0	32772	
6579	0	32456	
6580	0	32164	
6581	0	32268	
6582	0	32749	
6583	0	33080	
6584	0	33132	
6585	0	33080	
6586	0	33068	
6587	0	33068	
6588	0	33140	
6589	0	33220	
6590	0	33232	
6591	0	33200	
6592	0	33142	
6593	0	33130	
6594	0	33108	
6595	0	33088	
6596	0	33064	
6597	0	32868	
6598	0	32916	
6599	0	32748	
6600	0	32504	
6601	0	32328	
6602	0	32284	
6603	0	32508	
6604	0	32560	
6605	0	32560	
6606	0	32528	
6607	0	32552	
6608	0	32716	
6609	0	33204	
6610	0	33672	
6611	0	34064	
6612	0	34288	
6613	0	34528	
6614	0	34876	
6615	0	35060	
6616	0	35212	
6617	0	34924	
6618	0	34304	
6619	0	33860	
6620	0	33353	
6621	0	32960	
6622	0	32952	
6623	0	33292	
6624	0	33812	
6625	0	34292	
6626	0	34608	
6627	0	34608	
6628	0	34560	
6629	0	34516	
6630	0	34434	
6631	0	34444	
6632	0	34540	
6633	0	34784	
6634	0	34984	
6635	0	35160	
6636	0	35132	
6637	0	35024	
6638	0	34952	
6639	0	34924	
6640	0	34768	
6641	0	34700	
6642	0	34636	
6643	0	34580	
6644	0	34720	
6645	0	34912	
6646	0	34956	
6647	0	34952	
6648	0	34756	
6649	0	34624	
6650	0	34364	
6651	0	34344	
6652	0	34560	
6653	0	34664	
6654	0	34360	
6655	0	34042	
6656	0	33792	
6657	0	33804	
6658	0	34004	
6659	0	34056	
6660	0	33996	
6661	0	33930	
6662	0	33728	
6663	0	33512	
6664	0	33548	
6665	0	33760	
6666	0	33828	
6667	0	34024	
6668	0	34092	
6669	0	34228	
6670	0	34304	
6671	0	34252	
6672	0	34228	
6673	0	34324	
6674	0	34424	
6675	0	34464	
6676	0	34508	
6677	0	34436	
6678	0	34068	
6679	0	33784	
6680	0	33700	
6681	0	33676	
6682	0	33776	
6683	0	33816	
6684	0	34010	
6685	0	34300	
6686	0	34216	
6687	0	34112	
6688	0	34220	
6689	0	34232	
6690	0	34152	
6691	0	34136	
6692	0	34122	
6693	0	34408	
6694	0	34610	
6695	0	34508	
6696	0	34380	
6697	0	34188	
6698	0	33836	
6699	0	33680	
6700	0	33776	
6701	0	34120	
6702	0	34468	
6703	0	34680	
6704	0	34884	
6705	0	34896	
6706	0	34704	
6707	0	34680	
6708	0	34588	
6709	0	34316	
6710	0	34068	
6711	0	33914	
6712	0	33820	
6713	0	33936	
6714	0	33964	
6715	0	33938	
6716	0	33832	
6717	0	33656	
6718	0	33536	
6719	0	33496	
6720	0	33476	
6721	0	33560	
6722	0	33688	
6723	0	33824	
6724	0	33960	
6725	0	34204	
6726	0	34424	
6727	0	34584	
6728	0	34816	
6729	0	35124	
6730	0	35272	
6731	0	35340	
6732	0	35224	
6733	0	34808	
6734	0	34316	
6735	0	33932	
6736	0	33776	
6737	0	33712	
6738	0	33842	
6739	0	34124	
6740	0	34368	
6741	0	34476	
6742	0	34520	
6743	0	34608	
6744	0	34830	
6745	0	34880	
6746	0	34760	
6747	0	34784	
6748	0	34992	
6749	0	35220	
6750	0	35212	
6751	0	35112	
6752	0	35056	
6753	0	35180	
6754	0	35432	
6755	0	35488	
6756	0	35424	
6757	0	35280	
6758	0	35076	
6759	0	35174	
6760	0	34944	
6761	0	34664	
6762	0	34632	
6763	0	34628	
6764	0	34924	
6765	0	35068	
6766	0	35412	
6767	0	35720	
6768	0	35788	
6769	0	35784	
6770	0	35334	
6771	0	34840	
6772	0	34648	
6773	0	34664	
6774	0	34628	
6775	0	34520	
6776	0	34444	
6777	0	34372	
6778	0	34460	
6779	0	34624	
6780	0	34636	
6781	0	34690	
6782	0	35064	
6783	0	35264	
6784	0	35438	
6785	0	35540	
6786	0	35520	
6787	0	35672	
6788	0	35776	
6789	0	35680	
6790	0	35724	
6791	0	36032	
6792	0	36232	
6793	0	36308	
6794	0	36068	
6795	0	35692	
6796	0	35384	
6797	0	35130	
6798	0	35016	
6799	0	35020	
6800	0	35168	
6801	0	35176	
6802	0	35160	
6803	0	35236	
6804	0	35196	
6805	0	35128	
6806	0	34960	
6807	0	34872	
6808	0	34616	
6809	0	34428	
6810	0	34448	
6811	0	34652	
6812	0	34776	
6813	0	35018	
6814	0	35296	
6815	0	35380	
6816	0	35232	
6817	0	35144	
6818	0	35296	
6819	0	35376	
6820	0	35528	
6821	0	35644	
6822	0	35592	
6823	0	35564	
6824	0	35536	
6825	0	35324	
6826	0	35072	
6827	0	34976	
6828	0	35012	
6829	0	35220	
6830	0	35388	
6831	0	35432	
6832	0	35200	
6833	0	35104	
6834	0	35288	
6835	0	35428	
6836	0	35248	
6837	0	35032	
6838	0	35168	
6839	0	35200	
6840	0	35232	
6841	0	35244	
6842	0	35284	
6843	0	35408	
6844	0	35268	
6845	0	35232	
6846	0	35032	
6847	0	34776	
6848	0	34684	
6849	0	34632	
6850	0	34624	
6851	0	34656	
6852	0	34612	
6853	0	34732	
6854	0	35076	
6855	0	35300	
6856	0	35452	
6857	0	35684	
6858	0	35808	
6859	0	35797	
6860	0	35680	
6861	0	35546	
6862	0	35432	
6863	0	35264	
6864	0	35016	
6865	0	34964	
6866	0	34840	
6867	0	34756	
6868	0	34820	
6869	0	34960	
6870	0	35128	
6871	0	35240	
6872	0	35116	
6873	0	35096	
6874	0	35184	
6875	0	35168	
6876	0	35088	
6877	0	35036	
6878	0	35016	
6879	0	34888	
6880	0	34680	
6881	0	34420	
6882	0	34264	
6883	0	34348	
6884	0	34476	
6885	0	34740	
6886	0	34832	
6887	0	34920	
6888	0	35008	
6889	0	35040	
6890	0	35040	
6891	0	34928	
6892	0	34724	
6893	0	34544	
6894	0	34736	
6895	0	34968	
6896	0	35048	
6897	0	35132	
6898	0	35244	
6899	0	35296	
6900	0	35344	
6901	0	35536	
6902	0	35608	
6903	0	35508	
6904	0	35386	
6905	0	35300	
6906	0	35000	
6907	0	34752	
6908	0	34672	
6909	0	34608	
6910	0	34792	
6911	0	34864	
6912	0	34732	
6913	0	34592	
6914	0	34576	
6915	0	34592	
6916	0	34538	
6917	0	34572	
6918	0	34700	
6919	0	34868	
6920	0	34804	
6921	0	34826	
6922	0	34736	
6923	0	34772	
6924	0	35068	
6925	0	35428	
6926	0	35712	
6927	0	35640	
6928	0	35488	
6929	0	35288	
6930	0	34984	
6931	0	34808	
6932	0	34792	
6933	0	34700	
6934	0	34324	
6935	0	34032	
6936	0	34040	
6937	0	34132	
6938	0	34472	
6939	0	34548	
6940	0	34352	
6941	0	34260	
6942	0	34160	
6943	0	34188	
6944	0	34316	
6945	0	34520	
6946	0	34884	
6947	0	35116	
6948	0	35250	
6949	0	35268	
6950	0	35212	
6951	0	35132	
6952	0	34992	
6953	0	35034	
6954	0	35220	
6955	0	35352	
6956	0	35296	
6957	0	35180	
6958	0	35248	
6959	0	35048	
6960	0	34732	
6961	0	34500	
6962	0	34528	
6963	0	34368	
6964	0	34088	
6965	0	33936	
6966	0	33444	
6967	0	33096	
6968	0	32888	
6969	0	32652	
6970	0	32540	
6971	0	32608	
6972	0	32492	
6973	0	32600	
6974	0	32688	
6975	0	32560	
6976	0	32620	
6977	0	32580	
6978	0	32416	
6979	0	32484	
6980	0	32780	
6981	0	32904	
6982	0	32868	
6983	0	32816	
6984	0	32604	
6985	0	32244	
6986	0	31788	
6987	0	31200	
6988	0	30640	
6989	0	30156	
6990	0	29992	
6991	0	30112	
6992	0	30164	
6993	0	30072	
6994	0	30180	
6995	0	30464	
6996	0	30584	
6997	0	30704	
6998	0	30788	
6999	0	30864	
7000	0	30764	
7001	0	30408	
7002	0	30060	
7003	0	29708	
7004	0	29248	
7005	0	28908	
7006	0	28672	
7007	0	28512	
7008	0	28688	
7009	0	28900	
7010	0	29136	
7011	0	29272	
7012	0	29340	
7013	0	29460	
7014	0	29378	
7015	0	29360	
7016	0	29340	
7017	0	29412	
7018	0	29652	
7019	0	29840	
7020	0	30080	
7021	0	30444	
7022	0	30700	
7023	0	30984	
7024	0	31420	
7025	0	31972	
7026	0	32416	
7027	0	32388	
7028	0	32424	
7029	0	32520	
7030	0	32620	
7031	0	32600	
7032	0	32504	
7033	0	32492	
7034	0	32476	
7035	0	32360	
7036	0	32192	
7037	0	32204	
7038	0	32409	
7039	0	32748	
7040	0	32956	
7041	0	33152	
7042	0	33282	
7043	0	33460	
7044	0	33800	
7045	0	34268	
7046	0	34700	
7047	0	35136	
7048	0	35528	
7049	0	35856	
7050	0	36092	
7051	0	36236	
7052	0	36516	
7053	0	36712	
7054	0	36616	
7055	0	36568	
7056	0	36584	
7057	0	36520	
7058	0	36548	
7059	0	36752	
7060	0	36804	
7061	0	36816	
7062	0	36704	
7063	0	36448	
7064	0	36196	
7065	0	36052	
7066	0	36072	
7067	0	36176	
7068	0	36152	
7069	0	36060	
7070	0	36072	
7071	0	36104	
7072	0	36136	
7073	0	36104	
7074	0	36006	
7075	0	35916	
7076	0	35720	
7077	0	35792	
7078	0	36048	
7079	0	36024	
7080	0	35864	
7081	0	35864	
7082	0	35988	
7083	0	36160	
7084	0	36220	
7085	0	36188	
7086	0	36184	
7087	0	35988	
7088	0	35696	
7089	0	35528	
7090	0	35488	
7091	0	35492	
7092	0	35456	
7093	0	35488	
7094	0	35396	
7095	0	35072	
7096	0	34840	
7097	0	34652	
7098	0	34400	
7099	0	34000	
7100	0	33360	
7101	0	32642	
7102	0	31492	
7103	0	29912	
7104	0	28264	
7105	0	26716	
7106	0	25108	
7107	0	23572	
7108	0	21964	
7109	0	20202	
7110	0	18264	
7111	0	16400	
7112	0	14660	
7113	0	12744	
7114	0	10508	
7115	0	8258	
7116	0	5875	
7117	0	3655	
7118	0	1490	
7119	0	16	
7120	0	15	
7121	0	15	
7122	0	15	
7123	0	15	
7124	0	15	
7125	0	14	
7126	0	4162	
7127	0	10054	
7128	0	16162	
7129	0	21944	
7130	0	27348	
7131	0	32432	
7132	0	37012	
7133	0	41076	
7134	0	44976	
7135	0	48904	
7136	0	52632	
7137	0	56080	
7138	0	58888	
7139	0	60424	
7140	0	61160	
7141	0	61504	
7142	0	61632	
7143	0	61624	
7144	0	61608	
7145	0	61520	
7146	0	61436	
7147	0	61320	
7148	0	61200	
7149	0	61104	
7150	0	58380	
7151	0	55484	
7152	0	52832	
7153	0	50336	
7154	0	48364	
7155	0	46848	
7156	0	45332	
7157	0	44148	
7158	0	43040	
7159	0	42016	
7160	0	41096	
7161	0	40336	
7162	0	39540	
7163	0	38728	
7164	0	38040	
7165	0	37652	
7166	0	37296	
7167	0	36774	
7168	0	36328	
7169	0	36160	
7170	0	35844	
7171	0	35578	
7172	0	35428	
7173	0	35224	
7174	0	34948	
7175	0	34800	
7176	0	34744	
7177	0	34820	
7178	0	34912	
7179	0	34926	
7180	0	34772	
7181	0	34680	
7182	0	34692	
7183	0	34628	
7184	0	34520	
7185	0	34280	
7186	0	34184	
7187	0	34036	
7188	0	33980	
7189	0	34136	
7190	0	34228	
7191	0	34296	
7192	0	34316	
7193	0	33888	
7194	0	33508	
7195	0	33440	
7196	0	33508	
7197	0	33552	
7198	0	33428	
7199	0	33248	
7200	0	33204	
7201	0	33288	
7202	0	33424	
7203	0	33428	
7204	0	33288	
7205	0	33266	
7206	0	33252	
7207	0	33152	
7208	0	33216	
7209	0	33216	
7210	0	33184	
7211	0	33232	
7212	0	33056	
7213	0	32836	
7214	0	32812	
7215	0	32888	
7216	0	32964	
7217	0	32908	
7218	0	32880	
7219	0	32728	
7220	0	32612	
7221	0	32668	
7222	0	32676	
7223	0	32560	
7224	0	32508	
7225	0	32456	
7226	0	32384	
7227	0	32388	
7228	0	32424	
7229	0	32404	
7230	0	32352	
7231	0	32208	
7232	0	32020	
7233	0	31876	
7234	0	31652	
7235	0	31484	
7236	0	31368	
7237	0	31180	
7238	0	31052	
7239	0	30980	
7240	0	31012	
7241	0	31080	
7242	0	31004	
7243	0	31008	
7244	0	31012	
7245	0	30872	
7246	0	30712	
7247	0	30684	
7248	0	30812	
7249	0	31156	
7250	0	31280	
7251	0	30900	
7252	0	30552	
7253	0	30600	
7254	0	30720	
7255	0	30720	
7256	0	30620	
7257	0	30632	
7258	0	30680	
7259	0	30904	
7260	0	30976	
7261	0	30880	
7262	0	30636	
7263	0	30426	
7264	0	30296	
7265	0	30276	
7266	0	30264	
7267	0	30190	
7268	0	30152	
7269	0	30096	
7270	0	29888	
7271	0	29848	
7272	0	29844	
7273	0	29888	
7274	0	29792	
7275	0	29880	
7276	0	30164	
7277	0	30324	
7278	0	30368	
7279	0	30256	
7280	0	29960	
7281	0	29716	
7282	0	29804	
7283	0	29840	
7284	0	29906	
7285	0	29736	
7286	0	29440	
7287	0	29336	
7288	0	29100	
7289	0	28792	
7290	0	28544	
7291	0	28488	
7292	0	28522	
7293	0	28560	
7294	0	28488	
7295	0	28512	
7296	0	28540	
7297	0	28524	
7298	0	28408	
7299	0	28349	
7300	0	28500	
7301	0	28548	
7302	0	28412	
7303	0	28340	
7304	0	28388	
7305	0	28376	
7306	0	28365	
7307	0	28404	
7308	0	28664	
7309	0	28988	
7310	0	28928	
7311	0	29021	
7312	0	29368	
7313	0	29508	
7314	0	29476	
7315	0	29370	
7316	0	29056	
7317	0	28740	
7318	0	28400	
7319	0	28250	
7320	0	28276	
7321	0	28256	
7322	0	28312	
7323	0	28312	
7324	0	28548	
7325	0	28888	
7326	0	29024	
7327	0	29000	
7328	0	28940	
7329	0	29116	
7330	0	29588	
7331	0	29890	
7332	0	29996	
7333	0	30034	
7334	0	30044	
7335	0	30172	
7336	0	30300	
7337	0	30256	
7338	0	30336	
7339	0	30466	
7340	0	30440	
7341	0	30528	
7342	0	30752	
7343	0	31008	
7344	0	31008	
7345	0	30944	
7346	0	30885	
7347	0	30810	
7348	0	30980	
7349	0	31164	
7350	0	31396	
7351	0	31512	
7352	0	31648	
7353	0	31752	
7354	0	31700	
7355	0	31728	
7356	0	31740	
7357	0	31624	
7358	0	31696	
7359	0	31688	
7360	0	31684	
7361	0	31896	
7362	0	32052	
7363	0	32044	
7364	0	31932	
7365	0	31786	
7366	0	31816	
7367	0	32204	
7368	0	32596	
7369	0	32892	
7370	0	32968	
7371	0	32920	
7372	0	32872	
7373	0	33008	
7374	0	33144	
7375	0	33176	
7376	0	33112	
7377	0	33112	
7378	0	33108	
7379	0	33032	
7380	0	33048	
7381	0	33232	
7382	0	33344	
7383	0	33532	
7384	0	33640	
7385	0	33568	
7386	0	33470	
7387	0	33360	
7388	0	33280	
7389	0	33472	
7390	0	33644	
7391	0	33488	
7392	0	33500	
7393	0	33564	
7394	0	33584	
7395	0	33556	
7396	0	33588	
7397	0	33952	
7398	0	34296	
7399	0	34452	
7400	0	34560	
7401	0	34456	
7402	0	34336	
7403	0	34608	
7404	0	34984	
7405	0	35312	
7406	0	35544	
7407	0	35672	
7408	0	35696	
7409	0	35600	
7410	0	35364	
7411	0	35176	
7412	0	35060	
7413	0	35060	
7414	0	35272	
7415	0	35428	
7416	0	35352	
7417	0	35336	
7418	0	35524	
7419	0	35492	
7420	0	35276	
7421	0	35152	
7422	0	35016	
7423	0	34988	
7424	0	35184	
7425	0	35152	
7426	0	35120	
7427	0	35068	
7428	0	34948	
7429	0	34992	
7430	0	35280	
7431	0	35364	
7432	0	35352	
7433	0	35312	
7434	0	35184	
7435	0	35300	
7436	0	35196	
7437	0	35084	
7438	0	34904	
7439	0	34792	
7440	0	34704	
7441	0	34688	
7442	0	34720	
7443	0	34808	
7444	0	34820	
7445	0	34992	
7446	0	35248	
7447	0	35380	
7448	0	35456	
7449	0	35513	
7450	0	35408	
7451	0	35296	
7452	0	35176	
7453	0	34992	
7454	0	34702	
7455	0	34368	
7456	0	34256	
7457	0	34356	
7458	0	34384	
7459	0	34480	
7460	0	34392	
7461	0	34460	
7462	0	34480	
7463	0	34340	
7464	0	34424	
7465	0	34744	
7466	0	35048	
7467	0	35112	
7468	0	34884	
7469	0	34728	
7470	0	34668	
7471	0	34412	
7472	0	34096	
7473	0	33864	
7474	0	33724	
7475	0	33768	
7476	0	34080	
7477	0	34236	
7478	0	34284	
7479	0	34192	
7480	0	33996	
7481	0	33864	
7482	0	33768	
7483	0	33872	
7484	0	33940	
7485	0	33872	
7486	0	34052	
7487	0	34264	
7488	0	34440	
7489	0	34512	
7490	0	34464	
7491	0	34468	
7492	0	34592	
7493	0	34756	
7494	0	34928	
7495	0	34912	
7496	0	35038	
7497	0	35040	
7498	0	34840	
7499	0	34680	
7500	0	34528	
7501	0	34432	
7502	0	34292	
7503	0	34464	
7504	0	34800	
7505	0	34864	
7506	0	34760	
7507	0	34828	
7508	0	34964	
7509	0	34868	
7510	0	34720	
7511	0	34664	
7512	0	34772	
7513	0	34948	
7514	0	35264	
7515	0	35280	
7516	0	35024	
7517	0	34860	
7518	0	34938	
7519	0	34932	
7520	0	34944	
7521	0	34866	
7522	0	34736	
7523	0	34528	
7524	0	34384	
7525	0	34432	
7526	0	34688	
7527	0	35104	
7528	0	35388	
7529	0	35476	
7530	0	35624	
7531	0	35552	
7532	0	35528	
7533	0	35704	
7534	0	35412	
7535	0	35112	
7536	0	35112	
7537	0	35240	
7538	0	35168	
7539	0	35016	
7540	0	34968	
7541	0	34892	
7542	0	34860	
7543	0	34880	
7544	0	34824	
7545	0	34924	
7546	0	34988	
7547	0	34880	
7548	0	34924	
7549	0	35226	
7550	0	35396	
7551	0	35500	
7552	0	35648	
7553	0	35660	
7554	0	35680	
7555	0	35618	
7556	0	35576	
7557	0	35504	
7558	0	35236	
7559	0	34972	
7560	0	34928	
7561	0	34836	
7562	0	34640	
7563	0	34696	
7564	0	35140	
7565	0	35396	
7566	0	35336	
7567	0	35360	
7568	0	35396	
7569	0	35560	
7570	0	35816	
7571	0	35920	
7572	0	35920	
7573	0	36000	
7574	0	35872	
7575	0	35604	
7576	0	35400	
7577	0	35436	
7578	0	35492	
7579	0	35530	
7580	0	35752	
7581	0	35884	
7582	0	36042	
7583	0	36304	
7584	0	36672	
7585	0	36802	
7586	0	36576	
7587	0	36306	
7588	0	35986	
7589	0	35720	
7590	0	35434	
7591	0	35340	
7592	0	35340	
7593	0	35312	
7594	0	35328	
7595	0	35572	
7596	0	35584	
7597	0	35464	
7598	0	35368	
7599	0	35280	
7600	0	35264	
7601	0	35372	
7602	0	35508	
7603	0	35604	
7604	0	35640	
7605	0	35864	
7606	0	36168	
7607	0	36364	
7608	0	36372	
7609	0	36152	
7610	0	35920	
7611	0	35668	
7612	0	35636	
7613	0	35616	
7614	0	35592	
7615	0	35588	
7616	0	35672	
7617	0	35712	
7618	0	35700	
7619	0	35768	
7620	0	35864	
7621	0	35708	
7622	0	35420	
7623	0	35208	
7624	0	35108	
7625	0	35056	
7626	0	34972	
7627	0	34964	
7628	0	34936	
7629	0	34884	
7630	0	34932	
7631	0	35024	
7632	0	35164	
7633	0	35356	
7634	0	35288	
7635	0	35216	
7636	0	35600	
7637	0	35888	
7638	0	35816	
7639	0	35664	
7640	0	35544	
7641	0	35492	
7642	0	35440	
7643	0	35360	
7644	0	35268	
7645	0	35428	
7646	0	35708	
7647	0	35876	
7648	0	35928	
7649	0	35872	
7650	0	35692	
7651	0	35480	
7652	0	35448	
7653	0	35432	
7654	0	35484	
7655	0	35504	
7656	0	35468	
7657	0	35328	
7658	0	35248	
7659	0	35244	
7660	0	35312	
7661	0	35232	
7662	0	35228	
7663	0	35372	
7664	0	35312	
7665	0	35108	
7666	0	35008	
7667	0	34944	
7668	0	34776	
7669	0	34816	
7670	0	34712	
7671	0	34704	
7672	0	34948	
7673	0	35048	
7674	0	34768	
7675	0	34464	
7676	0	34312	
7677	0	34336	
7678	0	34388	
7679	0	34468	
7680	0	34685	
7681	0	34868	
7682	0	34786	
7683	0	34888	
7684	0	35040	
7685	0	35044	
7686	0	34856	
7687	0	34920	
7688	0	35160	
7689	0	35160	
7690	0	35064	
7691	0	34952	
7692	0	34688	
7693	0	34568	
7694	0	34720	
7695	0	34880	
7696	0	34944	
7697	0	34748	
7698	0	34620	
7699	0	34584	
7700	0	34784	
7701	0	35152	
7702	0	35324	
7703	0	35240	
7704	0	35148	
7705	0	35124	
7706	0	35188	
7707	0	35186	
7708	0	35108	
7709	0	35044	
7710	0	34872	
7711	0	34912	
7712	0	34908	
7713	0	35096	
7714	0	35128	
7715	0	35184	
7716	0	35320	
7717	0	35436	
7718	0	35528	
7719	0	35552	
7720	0	35340	
7721	0	35380	
7722	0	35332	
7723	0	35064	
7724	0	34736	
7725	0	34394	
7726	0	34224	
7727	0	34200	
7728	0	34384	
7729	0	34584	
7730	0	34712	
7731	0	34792	
7732	0	34624	
7733	0	34284	
7734	0	34192	
7735	0	34256	
7736	0	34076	
7737	0	33976	
7738	0	34056	
7739	0	34132	
7740	0	34300	
7741	0	34332	
7742	0	34330	
7743	0	34460	
7744	0	34545	
7745	0	34644	
7746	0	34480	
7747	0	34296	
7748	0	34204	
7749	0	34160	
7750	0	34156	
7751	0	33704	
7752	0	33088	
7753	0	32544	
7754	0	32300	
7755	0	32396	
7756	0	32608	
7757	0	32824	
7758	0	33008	
7759	0	33080	
7760	0	32640	
7761	0	32116	
7762	0	32024	
7763	0	32328	
7764	0	32296	
7765	0	32024	
7766	0	31940	
7767	0	32076	
7768	0	31992	
7769	0	31660	
7770	0	31412	
7771	0	31276	
7772	0	31188	
7773	0	30932	
7774	0	30484	
7775	0	29802	
7776	0	29296	
7777	0	29200	
7778	0	29240	
7779	0	29192	
7780	0	29252	
7781	0	29472	
7782	0	29608	
7783	0	29548	
7784	0	29440	
7785	0	29464	
7786	0	29424	
7787	0	29480	
7788	0	29560	
7789	0	29720	
7790	0	29948	
7791	0	30136	
7792	0	30376	
7793	0	30588	
7794	0	30692	
7795	0	30988	
7796	0	31360	
7797	0	31608	
7798	0	31818	
7799	0	32152	
7800	0	32616	
7801	0	33080	
7802	0	33424	
7803	0	33252	
7804	0	32888	
7805	0	32642	
7806	0	32428	
7807	0	32376	
7808	0	32612	
7809	0	32812	
7810	0	32892	
7811	0	33096	
7812	0	33536	
7813	0	33728	
7814	0	33920	
7815	0	34074	
7816	0	34156	
7817	0	34300	
7818	0	34576	
7819	0	34800	
7820	0	34952	
7821	0	35204	
7822	0	35240	
7823	0	35368	
7824	0	35768	
7825	0	35996	
7826	0	36176	
7827	0	36428	
7828	0	36800	
7829	0	37224	
7830	0	37434	
7831	0	37456	
7832	0	37256	
7833	0	37100	
7834	0	37136	
7835	0	37304	
7836	0	37232	
7837	0	36964	
7838	0	36808	
7839	0	36824	
7840	0	37056	
7841	0	37108	
7842	0	37120	
7843	0	37016	
7844	0	37056	
7845	0	36824	
7846	0	36616	
7847	0	36520	
7848	0	36468	
7849	0	36564	
7850	0	36616	
7851	0	36564	
7852	0	36512	
7853	0	36324	
7854	0	36288	
7855	0	36152	
7856	0	35884	
7857	0	35848	
7858	0	36080	
7859	0	36152	
7860	0	36164	
7861	0	36138	
7862	0	36136	
7863	0	36064	
7864	0	36148	
7865	0	36376	
7866	0	36580	
7867	0	36588	
7868	0	36448	
7869	0	36172	
7870	0	35824	
7871	0	35496	
7872	0	35012	
7873	0	34488	
7874	0	33760	
7875	0	32860	
7876	0	31824	
7877	0	30552	
7878	0	29372	
7879	0	27844	
7880	0	26016	
7881	0	24256	
7882	0	22392	
7883	0	20368	
7884	0	18402	
7885	0	16368	
7886	0	14406	
7887	0	12432	
7888	0	10292	
7889	0	8012	
7890	0	5739	
7891	0	3464	
7892	0	1261	
7893	0	17	
7894	0	16	
7895	0	15	
7896	0	16	
7897	0	14	
7898	0	14	
7899	0	2719	
7900	0	7709	
7901	0	13444	
7902	0	19340	
7903	0	24984	
7904	0	30552	
7905	0	35592	
7906	0	39928	
7907	0	43840	
7908	0	47320	
7909	0	50724	
7910	0	53792	
7911	0	56476	
7912	0	58048	
7913	0	58824	
7914	0	59184	
7915	0	59320	
7916	0	59336	
7917	0	59296	
7918	0	59232	
7919	0	59156	
7920	0	59056	
7921	0	58960	
7922	0	58864	
7923	0	58768	
7924	0	58648	
7925	0	57252	
7926	0	53680	
7927	0	50760	
7928	0	48588	
7929	0	46920	
7930	0	45472	
7931	0	44356	
7932	0	43560	
7933	0	42788	
7934	0	41980	
7935	0	41252	
7936	0	40388	
7937	0	39456	
7938	0	38684	
7939	0	38008	
7940	0	37464	
7941	0	37056	
7942	0	36964	
7943	0	36928	
7944	0	36549	
7945	0	36144	
7946	0	36056	
7947	0	35928	
7948	0	35668	
7949	0	35416	
7950	0	35372	
7951	0	35445	
7952	0	35484	
7953	0	35412	
7954	0	35352	
7955	0	35226	
7956	0	34928	
7957	0	34504	
7958	0	34061	
7959	0	34088	
7960	0	34272	
7961	0	34192	
7962	0	34024	
7963	0	33876	
7964	0	33668	
7965	0	33588	
7966	0	33748	
7967	0	34064	
7968	0	34332	
7969	0	34388	
7970	0	34456	
7971	0	34424	
7972	0	34500	
7973	0	34408	
7974	0	34168	
7975	0	33904	
7976	0	33664	
7977	0	33608	
7978	0	33732	
7979	0	33760	
7980	0	33864	
7981	0	33992	
7982	0	33900	
7983	0	33904	
7984	0	33928	
7985	0	34228	
7986	0	34356	
7987	0	34162	
7988	0	33964	
7989	0	33840	
7990	0	33556	
7991	0	33168	
7992	0	33084	
7993	0	32992	
7994	0	32788	
7995	0	32780	
7996	0	32984	
7997	0	33188	
7998	0	33468	
7999	0	33616	
8000	0	33652	
8001	0	33736	
8002	0	33664	
8003	0	33596	
8004	0	33524	
8005	0	33346	
8006	0	33008	
8007	0	32908	
8008	0	33132	
8009	0	33032	
8010	0	32808	
8011	0	32504	
8012	0	32240	
8013	0	32104	
8014	0	32104	
8015	0	32136	
8016	0	32096	
8017	0	32092	
8018	0	32076	
8019	0	32216	
8020	0	32412	
8021	0	32520	
8022	0	32560	
8023	0	32480	
8024	0	32276	
8025	0	32244	
8026	0	32432	
8027	0	32824	
8028	0	32720	
8029	0	32456	
8030	0	32266	
8031	0	32044	
8032	0	31562	
8033	0	31176	
8034	0	31024	
8035	0	30928	
