# OpenSignals Text File Format. Version 1
# {"00:07:80:0F:2F:DA": {"position": 0, "device": "biosignalsplux", "device name": "00:07:80:0F:2F:DA", "device connection": "BTH00:07:80:0F:2F:DA", "sampling rate": 1000, "resolution": [16], "firmware version": 776, "comments": "", "keywords": "", "mode": 0, "sync interval": 2, "date": "2023-5-16", "time": "9:15:14.949", "channels": [1], "sensor": ["ECG"], "label": ["CH1"], "column": ["nSeq", "DI", "CH1"], "special": [{"SpO2": [80, 40, 5, 4, 3, 3]}, {"SpO2": [80, 40, 5, 4, 3, 3]}, {"SpO2": [80, 40, 5, 4, 3, 3]}, {"SpO2": [80, 40, 5, 4, 3, 3]}, {"SpO2": [80, 40, 5, 4, 3, 3]}, {"SpO2": [80, 40, 5, 4, 3, 3]}, {"SpO2": [80, 40, 5, 4, 3, 3]}, {"SpO2": [80, 40, 5, 4, 3, 3]}], "digital IO": [0, 1], "sleeve color": ["red"]}}
# EndOfHeader
0	0	40044	
1	0	43864	
2	0	47252	
3	0	49804	
4	0	51728	
5	0	53400	
6	0	55088	
7	0	56488	
8	0	57204	
9	0	57084	
10	0	56416	
11	0	55620	
12	0	54720	
13	0	53500	
14	0	51876	
15	0	50080	
16	0	48112	
17	0	46168	
18	0	44364	
19	0	42760	
20	0	41428	
21	0	40324	
22	0	39396	
23	0	38636	
24	0	38008	
25	0	37492	
26	0	36960	
27	0	36396	
28	0	35840	
29	0	35380	
30	0	34984	
31	0	34696	
32	0	34484	
33	0	34274	
34	0	34136	
35	0	34136	
36	0	34256	
37	0	34368	
38	0	34424	
39	0	34404	
40	0	34296	
41	0	34160	
42	0	34092	
43	0	34172	
44	0	34224	
45	0	34228	
46	0	34258	
47	0	34276	
48	0	34280	
49	0	34304	
50	0	34268	
51	0	34224	
52	0	34052	
53	0	33904	
54	0	33876	
55	0	33916	
56	0	34004	
57	0	34032	
58	0	33928	
59	0	33728	
60	0	33560	
61	0	33538	
62	0	33560	
63	0	33564	
64	0	33536	
65	0	33584	
66	0	33620	
67	0	33532	
68	0	33432	
69	0	33408	
70	0	33472	
71	0	33512	
72	0	33376	
73	0	33128	
74	0	32968	
75	0	32852	
76	0	32784	
77	0	32840	
78	0	32924	
79	0	32912	
80	0	32912	
81	0	32840	
82	0	32804	
83	0	32776	
84	0	32773	
85	0	32756	
86	0	32820	
87	0	32912	
88	0	32868	
89	0	32736	
90	0	32616	
91	0	32528	
92	0	32436	
93	0	32328	
94	0	32232	
95	0	32172	
96	0	32140	
97	0	32100	
98	0	32072	
99	0	31980	
100	0	31816	
101	0	31700	
102	0	31652	
103	0	31612	
104	0	31556	
105	0	31480	
106	0	31428	
107	0	31294	
108	0	31124	
109	0	31004	
110	0	30944	
111	0	30968	
112	0	31016	
113	0	31056	
114	0	31116	
115	0	31160	
116	0	31144	
117	0	31144	
118	0	31098	
119	0	31032	
120	0	31010	
121	0	30992	
122	0	31092	
123	0	31200	
124	0	31226	
125	0	31108	
126	0	30868	
127	0	30688	
128	0	30564	
129	0	30460	
130	0	30424	
131	0	30352	
132	0	30304	
133	0	30296	
134	0	30332	
135	0	30304	
136	0	30252	
137	0	30184	
138	0	30064	
139	0	30024	
140	0	29996	
141	0	29980	
142	0	29968	
143	0	29988	
144	0	29908	
145	0	29832	
146	0	29768	
147	0	29788	
148	0	29780	
149	0	29724	
150	0	29636	
151	0	29432	
152	0	29156	
153	0	28976	
154	0	28976	
155	0	29036	
156	0	29044	
157	0	28948	
158	0	28888	
159	0	28896	
160	0	29008	
161	0	29044	
162	0	28908	
163	0	28760	
164	0	28734	
165	0	28720	
166	0	28649	
167	0	28648	
168	0	28668	
169	0	28640	
170	0	28560	
171	0	28492	
172	0	28372	
173	0	28336	
174	0	28300	
175	0	28232	
176	0	28240	
177	0	28288	
178	0	28388	
179	0	28484	
180	0	28552	
181	0	28560	
182	0	28616	
183	0	28738	
184	0	28896	
185	0	29008	
186	0	29112	
187	0	29096	
188	0	28960	
189	0	28868	
190	0	28944	
191	0	29024	
192	0	29092	
193	0	29140	
194	0	29128	
195	0	29066	
196	0	29020	
197	0	28946	
198	0	28954	
199	0	28968	
200	0	29016	
201	0	29021	
202	0	29080	
203	0	29152	
204	0	29236	
205	0	29368	
206	0	29460	
207	0	29508	
208	0	29524	
209	0	29536	
210	0	29572	
211	0	29784	
212	0	30108	
213	0	30336	
214	0	30444	
215	0	30484	
216	0	30524	
217	0	30512	
218	0	30600	
219	0	30824	
220	0	31104	
221	0	31264	
222	0	31304	
223	0	31400	
224	0	31576	
225	0	31624	
226	0	31728	
227	0	31840	
228	0	31944	
229	0	32136	
230	0	32380	
231	0	32584	
232	0	32744	
233	0	32900	
234	0	33064	
235	0	33220	
236	0	33372	
237	0	33524	
238	0	33704	
239	0	33840	
240	0	33957	
241	0	34156	
242	0	34340	
243	0	34440	
244	0	34552	
245	0	34824	
246	0	35116	
247	0	35276	
248	0	35284	
249	0	35304	
250	0	35368	
251	0	35468	
252	0	35544	
253	0	35720	
254	0	35952	
255	0	36084	
256	0	36144	
257	0	36228	
258	0	36376	
259	0	36500	
260	0	36536	
261	0	36572	
262	0	36544	
263	0	36428	
264	0	36360	
265	0	36376	
266	0	36448	
267	0	36476	
268	0	36580	
269	0	36656	
270	0	36708	
271	0	36808	
272	0	36860	
273	0	36872	
274	0	36912	
275	0	36916	
276	0	36840	
277	0	36833	
278	0	36884	
279	0	36912	
280	0	36944	
281	0	36944	
282	0	36864	
283	0	36772	
284	0	36702	
285	0	36740	
286	0	36776	
287	0	36804	
288	0	36848	
289	0	36826	
290	0	36836	
291	0	36816	
292	0	36908	
293	0	36925	
294	0	36948	
295	0	36936	
296	0	36908	
297	0	36948	
298	0	36860	
299	0	36708	
300	0	36556	
301	0	36544	
302	0	36556	
303	0	36500	
304	0	36474	
305	0	36420	
306	0	36316	
307	0	36248	
308	0	36272	
309	0	36392	
310	0	36460	
311	0	36426	
312	0	36320	
313	0	36348	
314	0	36516	
315	0	36544	
316	0	36472	
317	0	36408	
318	0	36460	
319	0	36416	
320	0	36270	
321	0	36196	
322	0	36202	
323	0	36232	
324	0	36244	
325	0	36176	
326	0	36084	
327	0	35993	
328	0	35976	
329	0	36024	
330	0	35964	
331	0	35880	
332	0	35816	
333	0	35720	
334	0	35540	
335	0	35384	
336	0	35304	
337	0	35240	
338	0	35192	
339	0	35136	
340	0	35128	
341	0	35144	
342	0	35108	
343	0	35104	
344	0	35180	
345	0	35196	
346	0	35128	
347	0	35008	
348	0	34968	
349	0	34972	
350	0	35000	
351	0	34872	
352	0	34788	
353	0	34788	
354	0	34852	
355	0	34970	
356	0	34998	
357	0	34992	
358	0	34844	
359	0	34728	
360	0	34760	
361	0	34928	
362	0	34960	
363	0	34988	
364	0	34920	
365	0	34768	
366	0	34704	
367	0	34700	
368	0	34716	
369	0	34728	
370	0	34772	
371	0	34788	
372	0	34768	
373	0	34776	
374	0	34797	
375	0	34672	
376	0	34500	
377	0	34404	
378	0	34452	
379	0	34564	
380	0	34624	
381	0	34704	
382	0	34728	
383	0	34696	
384	0	34680	
385	0	34576	
386	0	34556	
387	0	34636	
388	0	34680	
389	0	34684	
390	0	34696	
391	0	34752	
392	0	34828	
393	0	34904	
394	0	34956	
395	0	34916	
396	0	34948	
397	0	34992	
398	0	34904	
399	0	34752	
400	0	34596	
401	0	34504	
402	0	34456	
403	0	34412	
404	0	34354	
405	0	34286	
406	0	34392	
407	0	34424	
408	0	34348	
409	0	34364	
410	0	34440	
411	0	34560	
412	0	34644	
413	0	34570	
414	0	34400	
415	0	34308	
416	0	34424	
417	0	34576	
418	0	34608	
419	0	34400	
420	0	34168	
421	0	33960	
422	0	33896	
423	0	34012	
424	0	34120	
425	0	34136	
426	0	34216	
427	0	34384	
428	0	34432	
429	0	34344	
430	0	34280	
431	0	34296	
432	0	34328	
433	0	34482	
434	0	34676	
435	0	34808	
436	0	34836	
437	0	34828	
438	0	34836	
439	0	34808	
440	0	34828	
441	0	34872	
442	0	34848	
443	0	34868	
444	0	34838	
445	0	34744	
446	0	34632	
447	0	34620	
448	0	34676	
449	0	34732	
450	0	34680	
451	0	34584	
452	0	34528	
453	0	34528	
454	0	34536	
455	0	34560	
456	0	34544	
457	0	34544	
458	0	34628	
459	0	34640	
460	0	34608	
461	0	34648	
462	0	34776	
463	0	34792	
464	0	34700	
465	0	34648	
466	0	34696	
467	0	34740	
468	0	34792	
469	0	34752	
470	0	34624	
471	0	34504	
472	0	34448	
473	0	34516	
474	0	34588	
475	0	34544	
476	0	34484	
477	0	34545	
478	0	34656	
479	0	34660	
480	0	34624	
481	0	34584	
482	0	34504	
483	0	34428	
484	0	34462	
485	0	34536	
486	0	34468	
487	0	34252	
488	0	34112	
489	0	34080	
490	0	34036	
491	0	34010	
492	0	34112	
493	0	34236	
494	0	34328	
495	0	34308	
496	0	34300	
497	0	34204	
498	0	34112	
499	0	34184	
500	0	34376	
501	0	34488	
502	0	34524	
503	0	34522	
504	0	34586	
505	0	34656	
506	0	34608	
507	0	34456	
508	0	34348	
509	0	34308	
510	0	34260	
511	0	34112	
512	0	33964	
513	0	33932	
514	0	33956	
515	0	34096	
516	0	34228	
517	0	34352	
518	0	34512	
519	0	34592	
520	0	34648	
521	0	34636	
522	0	34420	
523	0	34152	
524	0	34008	
525	0	34000	
526	0	34124	
527	0	34272	
528	0	34376	
529	0	34380	
530	0	34248	
531	0	34052	
532	0	33952	
533	0	33872	
534	0	33812	
535	0	33704	
536	0	33508	
537	0	33248	
538	0	32912	
539	0	32584	
540	0	32332	
541	0	32160	
542	0	32024	
543	0	31872	
544	0	31704	
545	0	31552	
546	0	31416	
547	0	31404	
548	0	31504	
549	0	31500	
550	0	31464	
551	0	31360	
552	0	31216	
553	0	31268	
554	0	31408	
555	0	31468	
556	0	31476	
557	0	31436	
558	0	31432	
559	0	31424	
560	0	31408	
561	0	31384	
562	0	31376	
563	0	31300	
564	0	31084	
565	0	30820	
566	0	30448	
567	0	30028	
568	0	29668	
569	0	29384	
570	0	29156	
571	0	28912	
572	0	28716	
573	0	28612	
574	0	28560	
575	0	28532	
576	0	28436	
577	0	28340	
578	0	28320	
579	0	28514	
580	0	28856	
581	0	29172	
582	0	29368	
583	0	29500	
584	0	29744	
585	0	29984	
586	0	30140	
587	0	30472	
588	0	30836	
589	0	31024	
590	0	31124	
591	0	31256	
592	0	31424	
593	0	31480	
594	0	31456	
595	0	31672	
596	0	32004	
597	0	32276	
598	0	32548	
599	0	32760	
600	0	32960	
601	0	33120	
602	0	33256	
603	0	33328	
604	0	33388	
605	0	33394	
606	0	33522	
607	0	33832	
608	0	34140	
609	0	34372	
610	0	34616	
611	0	34816	
612	0	34916	
613	0	34984	
614	0	35096	
615	0	35316	
616	0	35588	
617	0	35860	
618	0	36048	
619	0	36240	
620	0	36408	
621	0	36392	
622	0	36300	
623	0	36176	
624	0	36124	
625	0	36236	
626	0	36356	
627	0	36332	
628	0	36256	
629	0	36264	
630	0	36364	
631	0	36420	
632	0	36424	
633	0	36344	
634	0	36154	
635	0	36040	
636	0	36032	
637	0	36132	
638	0	36076	
639	0	35908	
640	0	35856	
641	0	35848	
642	0	35924	
643	0	36000	
644	0	36032	
645	0	35932	
646	0	35812	
647	0	35744	
648	0	35688	
649	0	35656	
650	0	35740	
651	0	35836	
652	0	35960	
653	0	36008	
654	0	35932	
655	0	35840	
656	0	35760	
657	0	35808	
658	0	35836	
659	0	35776	
660	0	35672	
661	0	35568	
662	0	35464	
663	0	35452	
664	0	35500	
665	0	35572	
666	0	35608	
667	0	35560	
668	0	35424	
669	0	35240	
670	0	35028	
671	0	34704	
672	0	34240	
673	0	33736	
674	0	33248	
675	0	32680	
676	0	32028	
677	0	31276	
678	0	30266	
679	0	29072	
680	0	27924	
681	0	26532	
682	0	24904	
683	0	23364	
684	0	21836	
685	0	20228	
686	0	18464	
687	0	16480	
688	0	14224	
689	0	11834	
690	0	9549	
691	0	7328	
692	0	5172	
693	0	3237	
694	0	2224	
695	0	1770	
696	0	1596	
697	0	1569	
698	0	1617	
699	0	4640	
700	0	8968	
701	0	13860	
702	0	18744	
703	0	22960	
704	0	26748	
705	0	30272	
706	0	33884	
707	0	37740	
708	0	41536	
709	0	45012	
710	0	47892	
711	0	50036	
712	0	51856	
713	0	53676	
714	0	55232	
715	0	56312	
716	0	56844	
717	0	56768	
718	0	56320	
719	0	55632	
720	0	54628	
721	0	53320	
722	0	51620	
723	0	49752	
724	0	47800	
725	0	45780	
726	0	43888	
727	0	42308	
728	0	41144	
729	0	40108	
730	0	39148	
731	0	38288	
732	0	37620	
733	0	37080	
734	0	36568	
735	0	36172	
736	0	35856	
737	0	35548	
738	0	35336	
739	0	35204	
740	0	35136	
741	0	35020	
742	0	34880	
743	0	34822	
744	0	34904	
745	0	34920	
746	0	34860	
747	0	34824	
748	0	34820	
749	0	34784	
750	0	34676	
751	0	34604	
752	0	34616	
753	0	34676	
754	0	34712	
755	0	34748	
756	0	34688	
757	0	34620	
758	0	34516	
759	0	34412	
760	0	34408	
761	0	34412	
762	0	34312	
763	0	34184	
764	0	34082	
765	0	33980	
766	0	33888	
767	0	33836	
768	0	33816	
769	0	33780	
770	0	33796	
771	0	33816	
772	0	33804	
773	0	33720	
774	0	33696	
775	0	33760	
776	0	33808	
777	0	33828	
778	0	33829	
779	0	33794	
780	0	33780	
781	0	33708	
782	0	33688	
783	0	33778	
784	0	33916	
785	0	33932	
786	0	33716	
787	0	33420	
788	0	33162	
789	0	33056	
790	0	32884	
791	0	32720	
792	0	32626	
793	0	32620	
794	0	32648	
795	0	32608	
796	0	32508	
797	0	32408	
798	0	32400	
799	0	32488	
800	0	32540	
801	0	32522	
802	0	32597	
803	0	32752	
804	0	32912	
805	0	32936	
806	0	32756	
807	0	32512	
808	0	32276	
809	0	32201	
810	0	32200	
811	0	32224	
812	0	32216	
813	0	32176	
814	0	32136	
815	0	32080	
816	0	32026	
817	0	32004	
818	0	31956	
819	0	31904	
820	0	31800	
821	0	31712	
822	0	31693	
823	0	31544	
824	0	31344	
825	0	31260	
826	0	31340	
827	0	31448	
828	0	31464	
829	0	31396	
830	0	31392	
831	0	31384	
832	0	31320	
833	0	31236	
834	0	31140	
835	0	31080	
836	0	31028	
837	0	30992	
838	0	30896	
839	0	30780	
840	0	30744	
841	0	30680	
842	0	30640	
843	0	30664	
844	0	30724	
845	0	30800	
846	0	30788	
847	0	30728	
848	0	30752	
849	0	30724	
850	0	30622	
851	0	30484	
852	0	30392	
853	0	30264	
854	0	30096	
855	0	29992	
856	0	29932	
857	0	29896	
858	0	29920	
859	0	29896	
860	0	29788	
861	0	29736	
862	0	29754	
863	0	29816	
864	0	29781	
865	0	29696	
866	0	29616	
867	0	29432	
868	0	29252	
869	0	29112	
870	0	29152	
871	0	29432	
872	0	29568	
873	0	29392	
874	0	29188	
875	0	29082	
876	0	29032	
877	0	29048	
878	0	29152	
879	0	29264	
880	0	29236	
881	0	29184	
882	0	29192	
883	0	29184	
884	0	29164	
885	0	29120	
886	0	29144	
887	0	29252	
888	0	29360	
889	0	29496	
890	0	29552	
891	0	29432	
892	0	29284	
893	0	29208	
894	0	29116	
895	0	29108	
896	0	29132	
897	0	29132	
898	0	29176	
899	0	29288	
900	0	29456	
901	0	29572	
902	0	29652	
903	0	29696	
904	0	29620	
905	0	29492	
906	0	29416	
907	0	29417	
908	0	29552	
909	0	29700	
910	0	29800	
911	0	29896	
912	0	30020	
913	0	30192	
914	0	30344	
915	0	30404	
916	0	30400	
917	0	30500	
918	0	30644	
919	0	30696	
920	0	30652	
921	0	30648	
922	0	30696	
923	0	30800	
924	0	30856	
925	0	30792	
926	0	30712	
927	0	30736	
928	0	30830	
929	0	30872	
930	0	30968	
931	0	31180	
932	0	31524	
933	0	31840	
934	0	32088	
935	0	32232	
936	0	32332	
937	0	32472	
938	0	32532	
939	0	32672	
940	0	32904	
941	0	33236	
942	0	33520	
943	0	33714	
944	0	33848	
945	0	34000	
946	0	34116	
947	0	34336	
948	0	34572	
949	0	34672	
950	0	34712	
951	0	34756	
952	0	34776	
953	0	34924	
954	0	35196	
955	0	35464	
956	0	35700	
957	0	35836	
958	0	35888	
959	0	35932	
960	0	35968	
961	0	36070	
962	0	36264	
963	0	36476	
964	0	36524	
965	0	36404	
966	0	36368	
967	0	36568	
968	0	36784	
969	0	36976	
970	0	37128	
971	0	37100	
972	0	36952	
973	0	36888	
974	0	37008	
975	0	37240	
976	0	37384	
977	0	37396	
978	0	37428	
979	0	37360	
980	0	37208	
981	0	37136	
982	0	37185	
983	0	37252	
984	0	37252	
985	0	37240	
986	0	37288	
987	0	37320	
988	0	37272	
989	0	37244	
990	0	37220	
991	0	37216	
992	0	37280	
993	0	37276	
994	0	37296	
995	0	37352	
996	0	37344	
997	0	37304	
998	0	37288	
999	0	37330	
1000	0	37412	
1001	0	37380	
1002	0	37260	
1003	0	37120	
1004	0	37016	
1005	0	36992	
1006	0	36976	
1007	0	36988	
1008	0	36968	
1009	0	37008	
1010	0	37000	
1011	0	37012	
1012	0	36932	
1013	0	36824	
1014	0	36824	
1015	0	36897	
1016	0	36948	
1017	0	36888	
1018	0	36760	
1019	0	36704	
1020	0	36676	
1021	0	36708	
1022	0	36820	
1023	0	36840	
1024	0	36744	
1025	0	36660	
1026	0	36600	
1027	0	36408	
1028	0	36240	
1029	0	36268	
1030	0	36324	
1031	0	36300	
1032	0	36232	
1033	0	36168	
1034	0	36080	
1035	0	36000	
1036	0	36048	
1037	0	36120	
1038	0	36192	
1039	0	36312	
1040	0	36392	
1041	0	36428	
1042	0	36440	
1043	0	36468	
1044	0	36460	
1045	0	36372	
1046	0	36240	
1047	0	36184	
1048	0	36104	
1049	0	35964	
1050	0	35852	
1051	0	35802	
1052	0	35740	
1053	0	35656	
1054	0	35584	
1055	0	35528	
1056	0	35528	
1057	0	35580	
1058	0	35656	
1059	0	35632	
1060	0	35548	
1061	0	35456	
1062	0	35392	
1063	0	35384	
1064	0	35388	
1065	0	35408	
1066	0	35344	
1067	0	35212	
1068	0	35108	
1069	0	35036	
1070	0	34974	
1071	0	35080	
1072	0	35384	
1073	0	35512	
1074	0	35444	
1075	0	35304	
1076	0	35284	
1077	0	35372	
1078	0	35388	
1079	0	35448	
1080	0	35456	
1081	0	35404	
1082	0	35416	
1083	0	35328	
1084	0	35228	
1085	0	35212	
1086	0	35196	
1087	0	35144	
1088	0	35100	
1089	0	35016	
1090	0	35028	
1091	0	35068	
1092	0	35060	
1093	0	35078	
1094	0	35100	
1095	0	35144	
1096	0	35144	
1097	0	35160	
1098	0	35176	
1099	0	35200	
1100	0	35160	
1101	0	35120	
1102	0	35200	
1103	0	35256	
1104	0	35184	
1105	0	35048	
1106	0	34884	
1107	0	34844	
1108	0	34860	
1109	0	34900	
1110	0	34980	
1111	0	35000	
1112	0	34904	
1113	0	34748	
1114	0	34612	
1115	0	34556	
1116	0	34564	
1117	0	34680	
1118	0	34800	
1119	0	34864	
1120	0	34876	
1121	0	34928	
1122	0	34944	
1123	0	35008	
1124	0	35112	
1125	0	35152	
1126	0	35132	
1127	0	35108	
1128	0	35104	
1129	0	35044	
1130	0	34992	
1131	0	34988	
1132	0	34960	
1133	0	34820	
1134	0	34692	
1135	0	34640	
1136	0	34764	
1137	0	34988	
1138	0	35144	
1139	0	35212	
1140	0	35116	
1141	0	35024	
1142	0	34984	
1143	0	34928	
1144	0	34904	
1145	0	34932	
1146	0	34832	
1147	0	34716	
1148	0	34796	
1149	0	34904	
1150	0	34864	
1151	0	34704	
1152	0	34588	
1153	0	34584	
1154	0	34672	
1155	0	34836	
1156	0	35032	
1157	0	35284	
1158	0	35384	
1159	0	35260	
1160	0	35120	
1161	0	35020	
1162	0	34904	
1163	0	34764	
1164	0	34680	
1165	0	34680	
1166	0	34704	
1167	0	34792	
1168	0	34856	
1169	0	34912	
1170	0	34944	
1171	0	34996	
1172	0	35012	
1173	0	34952	
1174	0	34860	
1175	0	34860	
1176	0	34904	
1177	0	34824	
1178	0	34696	
1179	0	34736	
1180	0	34816	
1181	0	34796	
1182	0	34716	
1183	0	34724	
1184	0	34848	
1185	0	34838	
1186	0	34804	
1187	0	34828	
1188	0	34884	
1189	0	34856	
1190	0	34828	
1191	0	34824	
1192	0	34836	
1193	0	34740	
1194	0	34680	
1195	0	34784	
1196	0	34928	
1197	0	35056	
1198	0	35076	
1199	0	35080	
1200	0	35040	
1201	0	34884	
1202	0	34764	
1203	0	34648	
1204	0	34560	
1205	0	34522	
1206	0	34524	
1207	0	34484	
1208	0	34556	
1209	0	34704	
1210	0	34840	
1211	0	34912	
1212	0	34940	
1213	0	34800	
1214	0	34596	
1215	0	34508	
1216	0	34552	
1217	0	34568	
1218	0	34552	
1219	0	34584	
1220	0	34636	
1221	0	34620	
1222	0	34696	
1223	0	34812	
1224	0	34756	
1225	0	34600	
1226	0	34592	
1227	0	34640	
1228	0	34524	
1229	0	34424	
1230	0	34424	
1231	0	34444	
1232	0	34400	
1233	0	34376	
1234	0	34448	
1235	0	34520	
1236	0	34438	
1237	0	34220	
1238	0	33960	
1239	0	33888	
1240	0	33796	
1241	0	33582	
1242	0	33284	
1243	0	33080	
1244	0	32912	
1245	0	32748	
1246	0	32560	
1247	0	32432	
1248	0	32316	
1249	0	32244	
1250	0	32168	
1251	0	32060	
1252	0	31988	
1253	0	32060	
1254	0	32114	
1255	0	31952	
1256	0	31724	
1257	0	31556	
1258	0	31572	
1259	0	31784	
1260	0	31868	
1261	0	31736	
1262	0	31596	
1263	0	31552	
1264	0	31640	
1265	0	31776	
1266	0	31688	
1267	0	31404	
1268	0	31238	
1269	0	31164	
1270	0	30932	
1271	0	30544	
1272	0	30057	
1273	0	29648	
1274	0	29394	
1275	0	29160	
1276	0	28880	
1277	0	28580	
1278	0	28364	
1279	0	28272	
1280	0	28304	
1281	0	28368	
1282	0	28448	
1283	0	28508	
1284	0	28622	
1285	0	28876	
1286	0	29220	
1287	0	29580	
1288	0	30016	
1289	0	30424	
1290	0	30624	
1291	0	30744	
1292	0	30860	
1293	0	31012	
1294	0	31188	
1295	0	31326	
1296	0	31400	
1297	0	31420	
1298	0	31452	
1299	0	31532	
1300	0	31668	
1301	0	31776	
1302	0	31872	
1303	0	32040	
1304	0	32212	
1305	0	32364	
1306	0	32568	
1307	0	32852	
1308	0	33120	
1309	0	33228	
1310	0	33396	
1311	0	33672	
1312	0	34000	
1313	0	34352	
1314	0	34648	
1315	0	34936	
1316	0	35236	
1317	0	35420	
1318	0	35540	
1319	0	35568	
1320	0	35672	
1321	0	35848	
1322	0	36016	
1323	0	36228	
1324	0	36352	
1325	0	36264	
1326	0	36152	
1327	0	36112	
1328	0	36132	
1329	0	36184	
1330	0	36208	
1331	0	36240	
1332	0	36244	
1333	0	36248	
1334	0	36176	
1335	0	36128	
1336	0	36208	
1337	0	36324	
1338	0	36420	
1339	0	36416	
1340	0	36452	
1341	0	36552	
1342	0	36528	
1343	0	36320	
1344	0	36020	
1345	0	35824	
1346	0	35736	
1347	0	35732	
1348	0	35760	
1349	0	35688	
1350	0	35628	
1351	0	35732	
1352	0	35760	
1353	0	35680	
1354	0	35652	
1355	0	35676	
1356	0	35740	
1357	0	35800	
1358	0	35884	
1359	0	35926	
1360	0	35892	
1361	0	35784	
1362	0	35640	
1363	0	35564	
1364	0	35440	
1365	0	35364	
1366	0	35380	
1367	0	35500	
1368	0	35676	
1369	0	35812	
1370	0	35916	
1371	0	35872	
1372	0	35824	
1373	0	35896	
1374	0	35884	
1375	0	35764	
1376	0	35548	
1377	0	35228	
1378	0	34772	
1379	0	34261	
1380	0	33680	
1381	0	32956	
1382	0	31888	
1383	0	30710	
1384	0	29556	
1385	0	28320	
1386	0	27048	
1387	0	25668	
1388	0	24154	
1389	0	22528	
1390	0	20792	
1391	0	19016	
1392	0	17285	
1393	0	15509	
1394	0	13670	
1395	0	11622	
1396	0	9516	
1397	0	7421	
1398	0	5482	
1399	0	3656	
1400	0	2194	
1401	0	1401	
1402	0	1486	
1403	0	2605	
1404	0	4371	
1405	0	7266	
1406	0	11562	
1407	0	16636	
1408	0	21760	
1409	0	26248	
1410	0	30276	
1411	0	34060	
1412	0	37744	
1413	0	41360	
1414	0	44852	
1415	0	47904	
1416	0	50340	
1417	0	52388	
1418	0	54128	
1419	0	55736	
1420	0	57024	
1421	0	57800	
1422	0	58128	
1423	0	57920	
1424	0	57328	
1425	0	56508	
1426	0	55528	
1427	0	54336	
1428	0	52840	
1429	0	51024	
1430	0	48972	
1431	0	46976	
1432	0	45044	
1433	0	43216	
1434	0	41770	
1435	0	40744	
1436	0	39816	
1437	0	38896	
1438	0	38020	
1439	0	37316	
1440	0	36744	
1441	0	36248	
1442	0	35704	
1443	0	35200	
1444	0	34864	
1445	0	34678	
1446	0	34484	
1447	0	34336	
1448	0	34310	
1449	0	34202	
1450	0	33988	
1451	0	33856	
1452	0	33776	
1453	0	33656	
1454	0	33500	
1455	0	33420	
1456	0	33388	
1457	0	33360	
1458	0	33368	
1459	0	33356	
1460	0	33352	
1461	0	33384	
1462	0	33472	
1463	0	33524	
1464	0	33592	
1465	0	33688	
1466	0	33704	
1467	0	33712	
1468	0	33696	
1469	0	33668	
1470	0	33696	
1471	0	33732	
1472	0	33680	
1473	0	33528	
1474	0	33396	
1475	0	33340	
1476	0	33320	
1477	0	33260	
1478	0	33164	
1479	0	33152	
1480	0	33236	
1481	0	33248	
1482	0	33136	
1483	0	32960	
1484	0	32786	
1485	0	32624	
1486	0	32492	
1487	0	32488	
1488	0	32566	
1489	0	32608	
1490	0	32672	
1491	0	32640	
1492	0	32588	
1493	0	32588	
1494	0	32736	
1495	0	32828	
1496	0	32696	
1497	0	32564	
1498	0	32456	
1499	0	32400	
1500	0	32324	
1501	0	32120	
1502	0	31964	
1503	0	31828	
1504	0	31800	
1505	0	31892	
1506	0	31840	
1507	0	31724	
1508	0	31688	
1509	0	31684	
1510	0	31660	
1511	0	31648	
1512	0	31616	
1513	0	31490	
1514	0	31376	
1515	0	31292	
1516	0	31236	
1517	0	31200	
1518	0	31204	
1519	0	31192	
1520	0	31100	
1521	0	30972	
1522	0	30816	
1523	0	30784	
1524	0	30860	
1525	0	30966	
1526	0	31016	
1527	0	31008	
1528	0	31056	
1529	0	31044	
1530	0	30960	
1531	0	30856	
1532	0	30768	
1533	0	30668	
1534	0	30624	
1535	0	30624	
1536	0	30616	
1537	0	30600	
1538	0	30572	
1539	0	30476	
1540	0	30324	
1541	0	30264	
1542	0	30200	
1543	0	30088	
1544	0	29996	
1545	0	29908	
1546	0	29868	
1547	0	29860	
1548	0	29780	
1549	0	29676	
1550	0	29596	
1551	0	29496	
1552	0	29496	
1553	0	29453	
1554	0	29272	
1555	0	29120	
1556	0	29152	
1557	0	29266	
1558	0	29272	
1559	0	29200	
1560	0	29176	
1561	0	29204	
1562	0	29304	
1563	0	29304	
1564	0	29276	
1565	0	29310	
1566	0	29316	
1567	0	29424	
1568	0	29460	
1569	0	29328	
1570	0	29168	
1571	0	29056	
1572	0	29064	
1573	0	29080	
1574	0	28944	
1575	0	28744	
1576	0	28520	
1577	0	28356	
1578	0	28308	
1579	0	28344	
1580	0	28366	
1581	0	28304	
1582	0	28300	
1583	0	28340	
1584	0	28392	
1585	0	28432	
1586	0	28504	
1587	0	28556	
1588	0	28516	
1589	0	28414	
1590	0	28380	
1591	0	28493	
1592	0	28600	
1593	0	28644	
1594	0	28672	
1595	0	28568	
1596	0	28396	
1597	0	28304	
1598	0	28352	
1599	0	28452	
1600	0	28584	
1601	0	28784	
1602	0	28852	
1603	0	28812	
1604	0	28744	
1605	0	28744	
1606	0	28700	
1607	0	28664	
1608	0	28672	
1609	0	28700	
1610	0	28820	
1611	0	28936	
1612	0	29028	
1613	0	29040	
1614	0	28984	
1615	0	28900	
1616	0	28960	
1617	0	29128	
1618	0	29198	
1619	0	29194	
1620	0	29192	
1621	0	29158	
1622	0	29132	
1623	0	29134	
1624	0	29164	
1625	0	29228	
1626	0	29306	
1627	0	29376	
1628	0	29404	
1629	0	29404	
1630	0	29556	
1631	0	29792	
1632	0	29940	
1633	0	30008	
1634	0	30052	
1635	0	30192	
1636	0	30292	
1637	0	30472	
1638	0	30732	
1639	0	31128	
1640	0	31532	
1641	0	31700	
1642	0	31724	
1643	0	31756	
1644	0	31740	
1645	0	31784	
1646	0	31904	
1647	0	32176	
1648	0	32516	
1649	0	32736	
1650	0	32832	
1651	0	32948	
1652	0	33012	
1653	0	33052	
1654	0	33192	
1655	0	33376	
1656	0	33592	
1657	0	33748	
1658	0	33888	
1659	0	34096	
1660	0	34224	
1661	0	34360	
1662	0	34546	
1663	0	34688	
1664	0	34864	
1665	0	34972	
1666	0	35048	
1667	0	35232	
1668	0	35460	
1669	0	35428	
1670	0	35256	
1671	0	35276	
1672	0	35440	
1673	0	35680	
1674	0	35956	
1675	0	36026	
1676	0	36072	
1677	0	36032	
1678	0	35980	
1679	0	36008	
1680	0	36028	
1681	0	36040	
1682	0	36032	
1683	0	36092	
1684	0	36176	
1685	0	36216	
1686	0	36204	
1687	0	36204	
1688	0	36281	
1689	0	36440	
1690	0	36488	
1691	0	36460	
1692	0	36420	
1693	0	36340	
1694	0	36324	
1695	0	36416	
1696	0	36440	
1697	0	36412	
1698	0	36336	
1699	0	36196	
1700	0	36128	
1701	0	36080	
1702	0	35960	
1703	0	35876	
1704	0	35920	
1705	0	35972	
1706	0	35960	
1707	0	35964	
1708	0	35908	
1709	0	35824	
1710	0	35786	
1711	0	35732	
1712	0	35740	
1713	0	35848	
1714	0	35848	
1715	0	35816	
1716	0	35860	
1717	0	35992	
1718	0	36096	
1719	0	36140	
1720	0	36152	
1721	0	36072	
1722	0	35932	
1723	0	35940	
1724	0	36012	
1725	0	36104	
1726	0	36072	
1727	0	35904	
1728	0	35728	
1729	0	35624	
1730	0	35608	
1731	0	35580	
1732	0	35520	
1733	0	35500	
1734	0	35400	
1735	0	35224	
1736	0	35104	
1737	0	35060	
1738	0	35040	
1739	0	35112	
1740	0	35192	
1741	0	35264	
1742	0	35232	
1743	0	35272	
1744	0	35344	
1745	0	35348	
1746	0	35368	
1747	0	35304	
1748	0	35104	
1749	0	34948	
1750	0	34912	
1751	0	34954	
1752	0	34996	
1753	0	34936	
1754	0	34788	
1755	0	34628	
1756	0	34544	
1757	0	34532	
1758	0	34512	
1759	0	34584	
1760	0	34660	
1761	0	34704	
1762	0	34728	
1763	0	34592	
1764	0	34404	
1765	0	34320	
1766	0	34352	
1767	0	34434	
1768	0	34356	
1769	0	34272	
1770	0	34228	
1771	0	34152	
1772	0	34074	
1773	0	34080	
1774	0	34154	
1775	0	34188	
1776	0	34166	
1777	0	34132	
1778	0	34088	
1779	0	34032	
1780	0	33984	
1781	0	33952	
1782	0	33840	
1783	0	33708	
1784	0	33624	
1785	0	33576	
1786	0	33560	
1787	0	33604	
1788	0	33668	
1789	0	33656	
1790	0	33640	
1791	0	33632	
1792	0	33648	
1793	0	33732	
1794	0	33800	
1795	0	33800	
1796	0	33804	
1797	0	33780	
1798	0	33784	
1799	0	33800	
1800	0	33776	
1801	0	33844	
1802	0	33888	
1803	0	33820	
1804	0	33728	
1805	0	33704	
1806	0	33652	
1807	0	33624	
1808	0	33616	
1809	0	33596	
1810	0	33564	
1811	0	33600	
1812	0	33580	
1813	0	33512	
1814	0	33456	
1815	0	33396	
1816	0	33432	
1817	0	33476	
1818	0	33512	
1819	0	33664	
1820	0	33916	
1821	0	34132	
1822	0	34104	
1823	0	33984	
1824	0	33888	
1825	0	33900	
1826	0	33876	
1827	0	33740	
1828	0	33652	
1829	0	33652	
1830	0	33708	
1831	0	33768	
1832	0	33704	
1833	0	33644	
1834	0	33576	
1835	0	33536	
1836	0	33516	
1837	0	33504	
1838	0	33476	
1839	0	33420	
1840	0	33412	
1841	0	33488	
1842	0	33586	
1843	0	33680	
1844	0	33696	
1845	0	33636	
1846	0	33560	
1847	0	33516	
1848	0	33496	
1849	0	33528	
1850	0	33460	
1851	0	33216	
1852	0	32964	
1853	0	32842	
1854	0	32840	
1855	0	32880	
1856	0	32984	
1857	0	33058	
1858	0	33084	
1859	0	33140	
1860	0	33192	
1861	0	33220	
1862	0	33248	
1863	0	33316	
1864	0	33408	
1865	0	33556	
1866	0	33572	
1867	0	33500	
1868	0	33408	
1869	0	33276	
1870	0	33168	
1871	0	33132	
1872	0	33216	
1873	0	33352	
1874	0	33588	
1875	0	33784	
1876	0	33676	
1877	0	33424	
1878	0	33278	
1879	0	33160	
1880	0	33152	
1881	0	33256	
1882	0	33352	
1883	0	33464	
1884	0	33568	
1885	0	33476	
1886	0	33444	
1887	0	33492	
1888	0	33504	
1889	0	33484	
1890	0	33508	
1891	0	33524	
1892	0	33404	
1893	0	33168	
1894	0	33076	
1895	0	33056	
1896	0	33040	
1897	0	33036	
1898	0	33116	
1899	0	33248	
1900	0	33256	
1901	0	33244	
1902	0	33268	
1903	0	33276	
1904	0	33160	
1905	0	33020	
1906	0	33000	
1907	0	32986	
1908	0	32948	
1909	0	32952	
1910	0	32952	
1911	0	33024	
1912	0	33120	
1913	0	33124	
1914	0	33116	
1915	0	33116	
1916	0	33216	
1917	0	33400	
1918	0	33508	
1919	0	33496	
1920	0	33456	
1921	0	33492	
1922	0	33408	
1923	0	33328	
1924	0	33244	
1925	0	33088	
1926	0	32952	
1927	0	32852	
1928	0	32810	
1929	0	32748	
1930	0	32664	
1931	0	32586	
1932	0	32480	
1933	0	32352	
1934	0	32120	
1935	0	31816	
1936	0	31552	
1937	0	31320	
1938	0	31144	
1939	0	30972	
1940	0	30816	
1941	0	30676	
1942	0	30576	
1943	0	30490	
1944	0	30420	
1945	0	30488	
1946	0	30632	
1947	0	30620	
1948	0	30588	
1949	0	30500	
1950	0	30436	
1951	0	30376	
1952	0	30364	
1953	0	30404	
1954	0	30324	
1955	0	30232	
1956	0	30164	
1957	0	30136	
1958	0	30072	
1959	0	29980	
1960	0	29876	
1961	0	29672	
1962	0	29306	
1963	0	28844	
1964	0	28348	
1965	0	27928	
1966	0	27612	
1967	0	27390	
1968	0	27292	
1969	0	27200	
1970	0	27120	
1971	0	26922	
1972	0	26720	
1973	0	26628	
1974	0	26652	
1975	0	26748	
1976	0	26954	
1977	0	27200	
1978	0	27456	
1979	0	27764	
1980	0	28152	
1981	0	28508	
1982	0	28752	
1983	0	29000	
1984	0	29248	
1985	0	29492	
1986	0	29664	
1987	0	29828	
1988	0	30062	
1989	0	30316	
1990	0	30316	
1991	0	30128	
1992	0	30132	
1993	0	30300	
1994	0	30536	
1995	0	30704	
1996	0	30956	
1997	0	31324	
1998	0	31672	
1999	0	32024	
2000	0	32220	
2001	0	32336	
2002	0	32484	
2003	0	32692	
2004	0	32852	
2005	0	32992	
2006	0	33172	
2007	0	33340	
2008	0	33430	
2009	0	33530	
2010	0	33744	
2011	0	33996	
2012	0	34260	
2013	0	34492	
2014	0	34560	
2015	0	34504	
2016	0	34422	
2017	0	34504	
2018	0	34672	
2019	0	34676	
2020	0	34588	
2021	0	34456	
2022	0	34312	
2023	0	34272	
2024	0	34320	
2025	0	34404	
2026	0	34472	
2027	0	34520	
2028	0	34568	
2029	0	34636	
2030	0	34740	
2031	0	34772	
2032	0	34832	
2033	0	34890	
2034	0	34908	
2035	0	34944	
2036	0	34964	
2037	0	34868	
2038	0	34868	
2039	0	34948	
2040	0	34932	
2041	0	34984	
2042	0	35040	
2043	0	34944	
2044	0	34836	
2045	0	34736	
2046	0	34628	
2047	0	34496	
2048	0	34428	
2049	0	34324	
2050	0	34116	
2051	0	34060	
2052	0	34096	
2053	0	34144	
2054	0	34180	
2055	0	34108	
2056	0	34042	
2057	0	34000	
2058	0	33952	
2059	0	34012	
2060	0	34112	
2061	0	34176	
2062	0	34244	
2063	0	34320	
2064	0	34376	
2065	0	34352	
2066	0	34320	
2067	0	34180	
2068	0	34068	
2069	0	33792	
2070	0	33520	
2071	0	33268	
2072	0	32792	
2073	0	32064	
2074	0	31080	
2075	0	29922	
2076	0	28688	
2077	0	27444	
2078	0	26232	
2079	0	24816	
2080	0	23336	
2081	0	21808	
2082	0	20248	
2083	0	18588	
2084	0	16854	
2085	0	15037	
2086	0	13052	
2087	0	10965	
2088	0	8859	
2089	0	6725	
2090	0	4651	
2091	0	2681	
2092	0	1195	
2093	0	480	
2094	0	316	
2095	0	1269	
2096	0	2952	
2097	0	5780	
2098	0	10068	
2099	0	15248	
2100	0	20440	
2101	0	24969	
2102	0	28944	
2103	0	32688	
2104	0	36496	
2105	0	40280	
2106	0	43988	
2107	0	47224	
2108	0	49788	
2109	0	51800	
2110	0	53456	
2111	0	55008	
2112	0	56352	
2113	0	57276	
2114	0	57464	
2115	0	57008	
2116	0	56296	
2117	0	55432	
2118	0	54216	
2119	0	52736	
2120	0	51040	
2121	0	49056	
2122	0	46992	
2123	0	45060	
2124	0	43284	
2125	0	41720	
2126	0	40348	
2127	0	39200	
2128	0	38184	
2129	0	37336	
2130	0	36616	
2131	0	35920	
2132	0	35256	
2133	0	34744	
2134	0	34392	
2135	0	33944	
2136	0	33572	
2137	0	33336	
2138	0	33168	
2139	0	33112	
2140	0	32992	
2141	0	32864	
2142	0	32768	
2143	0	32636	
2144	0	32434	
2145	0	32304	
2146	0	32272	
2147	0	32244	
2148	0	32236	
2149	0	32324	
2150	0	32380	
2151	0	32360	
2152	0	32412	
2153	0	32512	
2154	0	32552	
2155	0	32576	
2156	0	32544	
2157	0	32516	
2158	0	32424	
2159	0	32216	
2160	0	32064	
2161	0	32052	
2162	0	32240	
2163	0	32240	
2164	0	32200	
2165	0	32136	
2166	0	32028	
2167	0	31924	
2168	0	31860	
2169	0	31848	
2170	0	31892	
2171	0	31948	
2172	0	32029	
2173	0	32088	
2174	0	32048	
2175	0	31952	
2176	0	31858	
2177	0	31824	
2178	0	31778	
2179	0	31780	
2180	0	31764	
2181	0	31768	
2182	0	31792	
2183	0	31800	
2184	0	31700	
2185	0	31540	
2186	0	31380	
2187	0	31264	
2188	0	31208	
2189	0	31040	
2190	0	30904	
2191	0	30860	
2192	0	30940	
2193	0	31120	
2194	0	31352	
2195	0	31388	
2196	0	31204	
2197	0	31052	
2198	0	30976	
2199	0	30968	
2200	0	30928	
2201	0	30752	
2202	0	30544	
2203	0	30500	
2204	0	30664	
2205	0	30836	
2206	0	30896	
2207	0	30792	
2208	0	30686	
2209	0	30504	
2210	0	30284	
2211	0	30148	
2212	0	30092	
2213	0	30010	
2214	0	30096	
2215	0	30236	
2216	0	30184	
2217	0	30160	
2218	0	30152	
2219	0	30092	
2220	0	30016	
2221	0	30004	
2222	0	30024	
2223	0	30144	
2224	0	30016	
2225	0	29812	
2226	0	29648	
2227	0	29544	
2228	0	29484	
2229	0	29416	
2230	0	29500	
2231	0	29544	
2232	0	29432	
2233	0	29252	
2234	0	29268	
2235	0	29364	
2236	0	29328	
2237	0	29309	
2238	0	29284	
2239	0	29240	
2240	0	29096	
2241	0	29032	
2242	0	28904	
2243	0	28816	
2244	0	28596	
2245	0	28400	
2246	0	28356	
2247	0	28416	
2248	0	28364	
2249	0	28256	
2250	0	28192	
2251	0	28124	
2252	0	28104	
2253	0	28096	
2254	0	28080	
2255	0	28056	
2256	0	27997	
2257	0	27892	
2258	0	27808	
2259	0	27676	
2260	0	27560	
2261	0	27492	
2262	0	27364	
2263	0	27196	
2264	0	27204	
2265	0	27188	
2266	0	27356	
2267	0	27548	
2268	0	27516	
2269	0	27420	
2270	0	27460	
2271	0	27416	
2272	0	27524	
2273	0	27594	
2274	0	27648	
2275	0	27592	
2276	0	27684	
2277	0	27664	
2278	0	27676	
2279	0	27744	
2280	0	27840	
2281	0	27840	
2282	0	27864	
2283	0	27772	
2284	0	27668	
2285	0	27696	
2286	0	27488	
2287	0	27460	
2288	0	27452	
2289	0	27393	
2290	0	27356	
2291	0	27206	
2292	0	27104	
2293	0	27184	
2294	0	27368	
2295	0	27540	
2296	0	27724	
2297	0	27772	
2298	0	27920	
2299	0	28036	
2300	0	27920	
2301	0	27864	
2302	0	27849	
2303	0	27892	
2304	0	28056	
2305	0	28080	
2306	0	28000	
2307	0	28012	
2308	0	28068	
2309	0	28112	
2310	0	28136	
2311	0	28176	
2312	0	28164	
2313	0	28116	
2314	0	28056	
2315	0	28032	
2316	0	28248	
2317	0	28492	
2318	0	28521	
2319	0	28724	
2320	0	28820	
2321	0	28840	
2322	0	28932	
2323	0	29056	
2324	0	29072	
2325	0	29092	
2326	0	29276	
2327	0	29484	
2328	0	29720	
2329	0	30104	
2330	0	30368	
2331	0	30469	
2332	0	30704	
2333	0	30920	
2334	0	31024	
2335	0	31144	
2336	0	31296	
2337	0	31432	
2338	0	31576	
2339	0	31780	
2340	0	32012	
2341	0	32108	
2342	0	32240	
2343	0	32420	
2344	0	32500	
2345	0	32492	
2346	0	32512	
2347	0	32720	
2348	0	33056	
2349	0	33304	
2350	0	33484	
2351	0	33608	
2352	0	33640	
2353	0	33756	
2354	0	33908	
2355	0	34248	
2356	0	34668	
2357	0	34808	
2358	0	34820	
2359	0	34864	
2360	0	34940	
2361	0	35064	
2362	0	35172	
2363	0	35220	
2364	0	35252	
2365	0	35432	
2366	0	35368	
2367	0	35252	
2368	0	35352	
2369	0	35356	
2370	0	35312	
2371	0	35348	
2372	0	35540	
2373	0	35676	
2374	0	35648	
2375	0	35568	
2376	0	35632	
2377	0	35680	
2378	0	35640	
2379	0	35588	
2380	0	35416	
2381	0	35272	
2382	0	35360	
2383	0	35584	
2384	0	35688	
2385	0	35700	
2386	0	35824	
2387	0	35896	
2388	0	35856	
2389	0	35816	
2390	0	35760	
2391	0	35844	
2392	0	36048	
2393	0	36120	
2394	0	36152	
2395	0	36216	
2396	0	36312	
2397	0	36320	
2398	0	36264	
2399	0	36352	
2400	0	36184	
2401	0	36008	
2402	0	35816	
2403	0	35736	
2404	0	35768	
2405	0	35712	
2406	0	35592	
2407	0	35552	
2408	0	35512	
2409	0	35360	
2410	0	35248	
2411	0	35220	
2412	0	35136	
2413	0	35148	
2414	0	35148	
2415	0	35112	
2416	0	35020	
2417	0	34976	
2418	0	34858	
2419	0	34744	
2420	0	34840	
2421	0	34836	
2422	0	34808	
2423	0	34728	
2424	0	34836	
2425	0	35016	
2426	0	34936	
2427	0	34844	
2428	0	34776	
2429	0	34676	
2430	0	34724	
2431	0	34764	
2432	0	34756	
2433	0	34664	
2434	0	34676	
2435	0	34720	
2436	0	34792	
2437	0	34968	
2438	0	35080	
2439	0	34944	
2440	0	34728	
2441	0	34572	
2442	0	34536	
2443	0	34712	
2444	0	34690	
2445	0	34628	
2446	0	34596	
2447	0	34500	
2448	0	34380	
2449	0	34276	
2450	0	34272	
2451	0	34284	
2452	0	34264	
2453	0	34132	
2454	0	34212	
2455	0	34332	
2456	0	34160	
2457	0	34168	
2458	0	33976	
2459	0	33824	
2460	0	33872	
2461	0	33916	
2462	0	33984	
2463	0	33976	
2464	0	33996	
2465	0	33920	
2466	0	33844	
2467	0	33876	
2468	0	33912	
2469	0	33972	
2470	0	33956	
2471	0	33868	
2472	0	33824	
2473	0	33688	
2474	0	33700	
2475	0	33928	
2476	0	34040	
2477	0	33896	
2478	0	33624	
2479	0	33456	
2480	0	33408	
2481	0	33344	
2482	0	33416	
2483	0	33624	
2484	0	33786	
2485	0	33785	
2486	0	33830	
2487	0	33844	
2488	0	33944	
2489	0	33924	
2490	0	33856	
2491	0	33748	
2492	0	33612	
2493	0	33610	
2494	0	33740	
2495	0	33880	
2496	0	33808	
2497	0	33616	
2498	0	33468	
2499	0	33652	
2500	0	33924	
2501	0	33964	
2502	0	33858	
2503	0	33770	
2504	0	33724	
2505	0	33700	
2506	0	33808	
2507	0	33996	
2508	0	34044	
2509	0	33984	
2510	0	33916	
2511	0	33792	
2512	0	33656	
2513	0	33736	
2514	0	33840	
2515	0	33824	
2516	0	33716	
2517	0	33756	
2518	0	33928	
2519	0	34176	
2520	0	34296	
2521	0	34204	
2522	0	34033	
2523	0	34016	
2524	0	34104	
2525	0	34144	
2526	0	34026	
2527	0	33880	
2528	0	33856	
2529	0	33936	
2530	0	33932	
2531	0	33896	
2532	0	33852	
2533	0	33984	
2534	0	34072	
2535	0	34240	
2536	0	34528	
2537	0	34586	
2538	0	34380	
2539	0	34264	
2540	0	34368	
2541	0	34448	
2542	0	34384	
2543	0	34164	
2544	0	34052	
2545	0	33964	
2546	0	33896	
2547	0	33868	
2548	0	33882	
2549	0	33964	
2550	0	34060	
2551	0	34144	
2552	0	34188	
2553	0	34204	
2554	0	34144	
2555	0	34124	
2556	0	33972	
2557	0	34084	
2558	0	34280	
2559	0	34360	
2560	0	34208	
2561	0	34096	
2562	0	33952	
2563	0	33932	
2564	0	34008	
2565	0	34120	
2566	0	34128	
2567	0	34136	
2568	0	34072	
2569	0	34004	
2570	0	33960	
2571	0	33944	
2572	0	33780	
2573	0	33740	
2574	0	33892	
2575	0	34024	
2576	0	34044	
2577	0	34072	
2578	0	34036	
2579	0	33992	
2580	0	33948	
2581	0	33804	
2582	0	33692	
2583	0	33748	
2584	0	33888	
2585	0	33952	
2586	0	34044	
2587	0	34144	
2588	0	34184	
2589	0	34080	
2590	0	34056	
2591	0	33832	
2592	0	33772	
2593	0	33956	
2594	0	33902	
2595	0	33936	
2596	0	34050	
2597	0	33976	
2598	0	33852	
2599	0	33752	
2600	0	33652	
2601	0	33584	
2602	0	33576	
2603	0	33660	
2604	0	33592	
2605	0	33480	
2606	0	33564	
2607	0	33616	
2608	0	33612	
2609	0	33700	
2610	0	33764	
2611	0	33780	
2612	0	33692	
2613	0	33592	
2614	0	33512	
2615	0	33476	
2616	0	33400	
2617	0	33264	
2618	0	33228	
2619	0	33352	
2620	0	33464	
2621	0	33468	
2622	0	33552	
2623	0	33548	
2624	0	33544	
2625	0	33492	
2626	0	33260	
2627	0	33212	
2628	0	33038	
2629	0	32980	
2630	0	32920	
2631	0	32674	
2632	0	32396	
2633	0	32116	
2634	0	31920	
2635	0	31792	
2636	0	31504	
2637	0	31148	
2638	0	31056	
2639	0	30784	
2640	0	30568	
2641	0	30588	
2642	0	30740	
2643	0	30740	
2644	0	30652	
2645	0	30484	
2646	0	30424	
2647	0	30484	
2648	0	30608	
2649	0	30744	
2650	0	30728	
2651	0	30588	
2652	0	30372	
2653	0	30256	
2654	0	30224	
2655	0	30324	
2656	0	30432	
2657	0	30480	
2658	0	30256	
2659	0	29828	
2660	0	29464	
2661	0	29208	
2662	0	28896	
2663	0	28540	
2664	0	28400	
2665	0	28228	
2666	0	28056	
2667	0	27920	
2668	0	27672	
2669	0	27436	
2670	0	27408	
2671	0	27608	
2672	0	27664	
2673	0	27860	
2674	0	28296	
2675	0	28704	
2676	0	29016	
2677	0	29348	
2678	0	29672	
2679	0	29896	
2680	0	30060	
2681	0	30244	
2682	0	30488	
2683	0	30648	
2684	0	30660	
2685	0	30672	
2686	0	30756	
2687	0	30912	
2688	0	31178	
2689	0	31504	
2690	0	31600	
2691	0	31544	
2692	0	31588	
2693	0	31884	
2694	0	32172	
2695	0	32424	
2696	0	32724	
2697	0	32852	
2698	0	32956	
2699	0	33260	
2700	0	33344	
2701	0	33338	
2702	0	33580	
2703	0	33840	
2704	0	34052	
2705	0	34236	
2706	0	34448	
2707	0	34636	
2708	0	34808	
2709	0	34924	
2710	0	35072	
2711	0	35256	
2712	0	35332	
2713	0	35492	
2714	0	35608	
2715	0	35668	
2716	0	35756	
2717	0	35836	
2718	0	35888	
2719	0	35892	
2720	0	35960	
2721	0	35932	
2722	0	35880	
2723	0	35736	
2724	0	35664	
2725	0	35604	
2726	0	35560	
2727	0	35548	
2728	0	35520	
2729	0	35572	
2730	0	35644	
2731	0	35628	
2732	0	35484	
2733	0	35444	
2734	0	35304	
2735	0	35328	
2736	0	35328	
2737	0	35344	
2738	0	35368	
2739	0	35276	
2740	0	35308	
2741	0	35360	
2742	0	35384	
2743	0	35436	
2744	0	35464	
2745	0	35568	
2746	0	35492	
2747	0	35312	
2748	0	35184	
2749	0	35108	
2750	0	35216	
2751	0	35352	
2752	0	35196	
2753	0	35036	
2754	0	34980	
2755	0	34960	
2756	0	34968	
2757	0	35028	
2758	0	35108	
2759	0	35044	
2760	0	34952	
2761	0	35000	
2762	0	35136	
2763	0	35144	
2764	0	35136	
2765	0	34961	
2766	0	34636	
2767	0	34252	
2768	0	33760	
2769	0	32984	
2770	0	31924	
2771	0	30784	
2772	0	29696	
2773	0	28688	
2774	0	27504	
2775	0	25996	
2776	0	24229	
2777	0	22496	
2778	0	20772	
2779	0	19044	
2780	0	17200	
2781	0	15328	
2782	0	13312	
2783	0	11332	
2784	0	9332	
2785	0	7297	
2786	0	5266	
2787	0	3192	
2788	0	1961	
2789	0	1405	
2790	0	1183	
2791	0	1136	
2792	0	1165	
2793	0	3152	
2794	0	7330	
2795	0	12376	
2796	0	17476	
2797	0	21893	
2798	0	25740	
2799	0	29416	
2800	0	33264	
2801	0	37356	
2802	0	41560	
2803	0	45656	
2804	0	49168	
2805	0	51764	
2806	0	53832	
2807	0	55616	
2808	0	57032	
2809	0	58096	
2810	0	58376	
2811	0	57976	
2812	0	57240	
2813	0	56052	
2814	0	54720	
2815	0	53224	
2816	0	51376	
2817	0	49440	
2818	0	47512	
2819	0	45648	
2820	0	43748	
2821	0	42028	
2822	0	40648	
2823	0	39616	
2824	0	38928	
2825	0	38196	
2826	0	37364	
2827	0	36716	
2828	0	36160	
2829	0	35604	
2830	0	35328	
2831	0	34976	
2832	0	34612	
2833	0	34344	
2834	0	34360	
2835	0	34464	
2836	0	34440	
2837	0	34420	
2838	0	34454	
2839	0	34420	
2840	0	34248	
2841	0	34220	
2842	0	34196	
2843	0	34148	
2844	0	34156	
2845	0	34172	
2846	0	34144	
2847	0	34220	
2848	0	34336	
2849	0	34400	
2850	0	34300	
2851	0	34350	
2852	0	34232	
2853	0	34008	
2854	0	33900	
2855	0	33876	
2856	0	33880	
2857	0	33772	
2858	0	33692	
2859	0	33724	
2860	0	33736	
2861	0	33716	
2862	0	33676	
2863	0	33568	
2864	0	33516	
2865	0	33360	
2866	0	33204	
2867	0	33168	
2868	0	33228	
2869	0	33476	
2870	0	33456	
2871	0	33408	
2872	0	33490	
2873	0	33600	
2874	0	33636	
2875	0	33656	
2876	0	33548	
2877	0	33432	
2878	0	33314	
2879	0	33228	
2880	0	33248	
2881	0	33404	
2882	0	33384	
2883	0	33332	
2884	0	33264	
2885	0	33140	
2886	0	33036	
2887	0	32976	
2888	0	32892	
2889	0	32841	
2890	0	32862	
2891	0	32808	
2892	0	32784	
2893	0	32816	
2894	0	32656	
2895	0	32452	
2896	0	32472	
2897	0	32640	
2898	0	32524	
2899	0	32340	
2900	0	32240	
2901	0	32296	
2902	0	32212	
2903	0	32104	
2904	0	32000	
2905	0	31884	
2906	0	31876	
2907	0	31868	
2908	0	31876	
2909	0	31868	
2910	0	31800	
2911	0	31752	
2912	0	31804	
2913	0	31896	
2914	0	31664	
2915	0	31562	
2916	0	31568	
2917	0	31584	
2918	0	31444	
2919	0	31408	
2920	0	31476	
2921	0	31360	
2922	0	31320	
2923	0	31324	
2924	0	31440	
2925	0	31304	
2926	0	31060	
2927	0	30956	
2928	0	31044	
2929	0	31100	
2930	0	31092	
2931	0	31116	
2932	0	31164	
2933	0	31120	
2934	0	31012	
2935	0	31120	
2936	0	31096	
2937	0	30976	
2938	0	30848	
2939	0	30712	
2940	0	30716	
2941	0	30692	
2942	0	30648	
2943	0	30692	
2944	0	30560	
2945	0	30458	
2946	0	30282	
2947	0	30168	
2948	0	30200	
2949	0	30040	
2950	0	29968	
2951	0	29904	
2952	0	29832	
2953	0	29740	
2954	0	29576	
2955	0	29496	
2956	0	29508	
2957	0	29508	
2958	0	29650	
2959	0	29896	
2960	0	30009	
2961	0	29988	
2962	0	29972	
2963	0	29904	
2964	0	29804	
2965	0	29743	
2966	0	29648	
2967	0	29640	
2968	0	29820	
2969	0	30076	
2970	0	30108	
2971	0	29924	
2972	0	29776	
2973	0	29705	
2974	0	29716	
2975	0	29700	
2976	0	29674	
2977	0	29684	
2978	0	29576	
2979	0	29540	
2980	0	29528	
2981	0	29420	
2982	0	29432	
2983	0	29520	
2984	0	29588	
2985	0	29696	
2986	0	29740	
2987	0	29760	
2988	0	29840	
2989	0	29932	
2990	0	29968	
2991	0	30024	
2992	0	30168	
2993	0	30328	
2994	0	30396	
2995	0	30440	
2996	0	30556	
2997	0	30424	
2998	0	30236	
2999	0	30058	
3000	0	29848	
3001	0	29648	
3002	0	29512	
3003	0	29505	
3004	0	29620	
3005	0	29848	
3006	0	30020	
3007	0	30172	
3008	0	30264	
3009	0	30336	
3010	0	30568	
3011	0	30588	
3012	0	30616	
3013	0	30632	
3014	0	30686	
3015	0	30832	
3016	0	31040	
3017	0	31068	
3018	0	31128	
3019	0	31296	
3020	0	31364	
3021	0	31452	
3022	0	31714	
3023	0	31936	
3024	0	32004	
3025	0	32122	
3026	0	32152	
3027	0	32236	
3028	0	32532	
3029	0	32740	
3030	0	32840	
3031	0	32904	
3032	0	33018	
3033	0	33284	
3034	0	33608	
3035	0	33704	
3036	0	33840	
3037	0	33986	
3038	0	33988	
3039	0	34148	
3040	0	34432	
3041	0	34696	
3042	0	34858	
3043	0	35072	
3044	0	35328	
3045	0	35384	
3046	0	35380	
3047	0	35468	
3048	0	35576	
3049	0	35720	
3050	0	35976	
3051	0	36092	
3052	0	36184	
3053	0	36376	
3054	0	36552	
3055	0	36760	
3056	0	36728	
3057	0	36728	
3058	0	36960	
3059	0	37140	
3060	0	37190	
3061	0	37092	
3062	0	37124	
3063	0	37160	
3064	0	37300	
3065	0	37388	
3066	0	37536	
3067	0	37696	
3068	0	37688	
3069	0	37500	
3070	0	37456	
3071	0	37456	
3072	0	37416	
3073	0	37408	
3074	0	37344	
3075	0	37272	
3076	0	37200	
3077	0	37312	
3078	0	37288	
3079	0	37348	
3080	0	37412	
3081	0	37416	
3082	0	37372	
3083	0	37460	
3084	0	37552	
3085	0	37752	
3086	0	37696	
3087	0	37528	
3088	0	37332	
3089	0	37188	
3090	0	37148	
3091	0	37120	
3092	0	37264	
3093	0	37280	
3094	0	37344	
3095	0	37404	
3096	0	37248	
3097	0	37232	
3098	0	37364	
3099	0	37412	
3100	0	37332	
3101	0	37264	
3102	0	37312	
3103	0	37501	
3104	0	37548	
3105	0	37624	
3106	0	37240	
3107	0	36940	
3108	0	36896	
3109	0	36912	
3110	0	36840	
3111	0	36816	
3112	0	36852	
3113	0	36832	
3114	0	36760	
3115	0	36736	
3116	0	36716	
3117	0	36748	
3118	0	36844	
3119	0	36870	
3120	0	36796	
3121	0	36776	
3122	0	36776	
3123	0	36800	
3124	0	36676	
3125	0	36488	
3126	0	36456	
3127	0	36536	
3128	0	36564	
3129	0	36568	
3130	0	36616	
3131	0	36652	
3132	0	36572	
3133	0	36496	
3134	0	36504	
3135	0	36436	
3136	0	36124	
3137	0	35908	
3138	0	35888	
3139	0	36068	
3140	0	36112	
3141	0	36180	
3142	0	36300	
3143	0	36380	
3144	0	36432	
3145	0	36376	
3146	0	36296	
3147	0	36154	
3148	0	35946	
3149	0	35744	
3150	0	35672	
3151	0	35568	
3152	0	35536	
3153	0	35552	
3154	0	35560	
3155	0	35608	
3156	0	35540	
3157	0	35440	
3158	0	35404	
3159	0	35452	
3160	0	35506	
3161	0	35516	
3162	0	35480	
3163	0	35520	
3164	0	35484	
3165	0	35512	
3166	0	35608	
3167	0	35580	
3168	0	35476	
3169	0	35372	
3170	0	35188	
3171	0	35130	
3172	0	35160	
3173	0	35432	
3174	0	35450	
3175	0	35288	
3176	0	35408	
3177	0	35528	
3178	0	35552	
3179	0	35528	
3180	0	35488	
3181	0	35512	
3182	0	35592	
3183	0	35652	
3184	0	35508	
3185	0	35416	
3186	0	35436	
3187	0	35424	
3188	0	35392	
3189	0	35324	
3190	0	35280	
3191	0	35324	
3192	0	35360	
3193	0	35356	
3194	0	35384	
3195	0	35344	
3196	0	35276	
3197	0	35292	
3198	0	35324	
3199	0	35308	
3200	0	35196	
3201	0	35192	
3202	0	35336	
3203	0	35452	
3204	0	35396	
3205	0	35220	
3206	0	35016	
3207	0	35018	
3208	0	35108	
3209	0	35292	
3210	0	35232	
3211	0	35012	
3212	0	35016	
3213	0	35084	
3214	0	35168	
3215	0	35208	
3216	0	35308	
3217	0	35340	
3218	0	35194	
3219	0	35172	
3220	0	34992	
3221	0	34912	
3222	0	34968	
3223	0	35020	
3224	0	35108	
3225	0	35216	
3226	0	35316	
3227	0	35368	
3228	0	35376	
3229	0	35412	
3230	0	35524	
3231	0	35500	
3232	0	35420	
3233	0	35232	
3234	0	34936	
3235	0	34668	
3236	0	34620	
3237	0	34712	
3238	0	34808	
3239	0	34920	
3240	0	35060	
3241	0	35064	
3242	0	35152	
3243	0	35292	
3244	0	35416	
3245	0	35620	
3246	0	35652	
3247	0	35496	
3248	0	35466	
3249	0	35436	
3250	0	35284	
3251	0	35128	
3252	0	35136	
3253	0	35184	
3254	0	35104	
3255	0	35100	
3256	0	35272	
3257	0	35324	
3258	0	35340	
3259	0	35232	
3260	0	35104	
3261	0	35116	
3262	0	35164	
3263	0	35216	
3264	0	35240	
3265	0	35272	
3266	0	35280	
3267	0	35316	
3268	0	35276	
3269	0	35336	
3270	0	35422	
3271	0	35340	
3272	0	35208	
3273	0	35208	
3274	0	35252	
3275	0	35240	
3276	0	35168	
3277	0	35060	
3278	0	35016	
3279	0	34980	
3280	0	34932	
3281	0	34976	
3282	0	34996	
3283	0	34956	
3284	0	34808	
3285	0	34764	
3286	0	34740	
3287	0	34764	
3288	0	34844	
3289	0	34908	
3290	0	35100	
3291	0	35052	
3292	0	34968	
3293	0	34980	
3294	0	34922	
3295	0	34904	
3296	0	34848	
3297	0	34804	
3298	0	34856	
3299	0	34992	
3300	0	35066	
3301	0	35028	
3302	0	34912	
3303	0	34820	
3304	0	34845	
3305	0	34960	
3306	0	34868	
3307	0	34732	
3308	0	34724	
3309	0	34832	
3310	0	34852	
3311	0	34788	
3312	0	34736	
3313	0	34612	
3314	0	34552	
3315	0	34596	
3316	0	34600	
3317	0	34680	
3318	0	34912	
3319	0	35120	
3320	0	35220	
3321	0	35140	
3322	0	34904	
3323	0	34816	
3324	0	34800	
3325	0	34552	
3326	0	34384	
3327	0	34100	
3328	0	33760	
3329	0	33392	
3330	0	33196	
3331	0	33076	
3332	0	32976	
3333	0	32862	
3334	0	32664	
3335	0	32564	
3336	0	32604	
3337	0	32600	
3338	0	32654	
3339	0	32442	
3340	0	32168	
3341	0	31976	
3342	0	31860	
3343	0	31810	
3344	0	31888	
3345	0	32029	
3346	0	32256	
3347	0	32148	
3348	0	31784	
3349	0	31588	
3350	0	31464	
3351	0	31276	
3352	0	31126	
3353	0	31052	
3354	0	31008	
3355	0	30832	
3356	0	30512	
3357	0	30136	
3358	0	29756	
3359	0	29414	
3360	0	29128	
3361	0	29016	
3362	0	28864	
3363	0	28660	
3364	0	28572	
3365	0	28684	
3366	0	28768	
3367	0	28716	
3368	0	28748	
3369	0	29036	
3370	0	29300	
3371	0	29552	
3372	0	29896	
3373	0	30432	
3374	0	30784	
3375	0	31012	
3376	0	31130	
3377	0	31224	
3378	0	31408	
3379	0	31728	
3380	0	32040	
3381	0	32121	
3382	0	32212	
3383	0	32336	
3384	0	32304	
3385	0	32164	
3386	0	32152	
3387	0	32044	
3388	0	32044	
3389	0	32240	
3390	0	32608	
3391	0	33024	
3392	0	33472	
3393	0	33952	
3394	0	34064	
3395	0	34148	
3396	0	34192	
3397	0	34318	
3398	0	34624	
3399	0	34888	
3400	0	35188	
3401	0	35336	
3402	0	35372	
3403	0	35420	
3404	0	35652	
3405	0	35920	
3406	0	36224	
3407	0	36312	
3408	0	36304	
3409	0	36322	
3410	0	36280	
3411	0	36240	
3412	0	36232	
3413	0	36284	
3414	0	36320	
3415	0	36360	
3416	0	36440	
3417	0	36544	
3418	0	36536	
3419	0	36468	
3420	0	36488	
3421	0	36396	
3422	0	36392	
3423	0	36474	
3424	0	36596	
3425	0	36632	
3426	0	36540	
3427	0	36572	
3428	0	36672	
3429	0	36800	
3430	0	36660	
3431	0	36552	
3432	0	36504	
3433	0	36480	
3434	0	36532	
3435	0	36412	
3436	0	36268	
3437	0	36280	
3438	0	36354	
3439	0	36420	
3440	0	36316	
3441	0	36244	
3442	0	36292	
3443	0	36332	
3444	0	36384	
3445	0	36336	
3446	0	36116	
3447	0	35828	
3448	0	35616	
3449	0	35484	
3450	0	35236	
3451	0	35124	
3452	0	35164	
3453	0	35272	
3454	0	35376	
3455	0	35464	
3456	0	35540	
3457	0	35492	
3458	0	35460	
3459	0	35320	
3460	0	35200	
3461	0	35034	
3462	0	34728	
3463	0	34360	
3464	0	33804	
3465	0	33216	
3466	0	32420	
3467	0	31568	
3468	0	30628	
3469	0	29544	
3470	0	28296	
3471	0	26892	
3472	0	25264	
3473	0	23636	
3474	0	21972	
3475	0	20298	
3476	0	18511	
3477	0	16572	
3478	0	14564	
3479	0	12516	
3480	0	10508	
3481	0	8446	
3482	0	6476	
3483	0	4525	
3484	0	2701	
3485	0	1393	
3486	0	781	
3487	0	865	
3488	0	2037	
3489	0	4192	
3490	0	7578	
3491	0	12133	
3492	0	17240	
3493	0	21812	
3494	0	25740	
3495	0	29360	
3496	0	33068	
3497	0	37104	
3498	0	41124	
3499	0	44824	
3500	0	47936	
3501	0	50116	
3502	0	51868	
3503	0	53492	
3504	0	54960	
3505	0	55992	
3506	0	56528	
3507	0	56380	
3508	0	55764	
3509	0	55128	
3510	0	54144	
3511	0	52864	
3512	0	51284	
3513	0	49496	
3514	0	47596	
3515	0	45744	
3516	0	44044	
3517	0	42568	
3518	0	41264	
3519	0	40112	
3520	0	39132	
3521	0	38400	
3522	0	37788	
3523	0	37108	
3524	0	36500	
3525	0	35856	
3526	0	35384	
3527	0	35108	
3528	0	34884	
3529	0	34644	
3530	0	34472	
3531	0	34404	
3532	0	34368	
3533	0	34348	
3534	0	34428	
3535	0	34442	
3536	0	34348	
3537	0	34260	
3538	0	34272	
3539	0	34332	
3540	0	34260	
3541	0	34156	
3542	0	34160	
3543	0	34208	
3544	0	34240	
3545	0	34224	
3546	0	34116	
3547	0	33984	
3548	0	33964	
3549	0	33832	
3550	0	33656	
3551	0	33624	
3552	0	33728	
3553	0	34048	
3554	0	34224	
3555	0	34148	
3556	0	34026	
3557	0	33928	
3558	0	33912	
3559	0	33904	
3560	0	33892	
3561	0	33892	
3562	0	33800	
3563	0	33676	
3564	0	33536	
3565	0	33424	
3566	0	33356	
3567	0	33304	
3568	0	33282	
3569	0	33292	
3570	0	33292	
3571	0	33384	
3572	0	33482	
3573	0	33432	
3574	0	33442	
3575	0	33456	
3576	0	33424	
3577	0	33424	
3578	0	33408	
3579	0	33284	
3580	0	33168	
3581	0	33112	
3582	0	33008	
3583	0	32880	
3584	0	32922	
3585	0	32976	
3586	0	32832	
3587	0	32608	
3588	0	32460	
3589	0	32452	
3590	0	32446	
3591	0	32360	
3592	0	32380	
3593	0	32580	
3594	0	32468	
3595	0	32248	
3596	0	32258	
3597	0	32157	
3598	0	32024	
3599	0	31980	
3600	0	32064	
3601	0	32176	
3602	0	32196	
3603	0	32132	
3604	0	32036	
3605	0	31972	
3606	0	31944	
3607	0	31904	
3608	0	31844	
3609	0	31696	
3610	0	31436	
3611	0	31410	
3612	0	31360	
3613	0	31242	
3614	0	31164	
3615	0	31156	
3616	0	31148	
3617	0	31148	
3618	0	31004	
3619	0	30952	
3620	0	31144	
3621	0	31272	
3622	0	31204	
3623	0	30964	
3624	0	30764	
3625	0	30656	
3626	0	30588	
3627	0	30540	
3628	0	30712	
3629	0	30768	
3630	0	30660	
3631	0	30616	
3632	0	30706	
3633	0	30728	
3634	0	30656	
3635	0	30512	
3636	0	30404	
3637	0	30356	
3638	0	30377	
3639	0	30400	
3640	0	30336	
3641	0	30236	
3642	0	30320	
3643	0	30048	
3644	0	29780	
3645	0	29744	
3646	0	29732	
3647	0	29676	
3648	0	29684	
3649	0	29680	
3650	0	29724	
3651	0	29588	
3652	0	29525	
3653	0	29532	
3654	0	29540	
3655	0	29521	
3656	0	29472	
3657	0	29384	
3658	0	29284	
3659	0	29220	
3660	0	29156	
3661	0	29096	
3662	0	29040	
3663	0	28948	
3664	0	28876	
3665	0	29016	
3666	0	29300	
3667	0	29344	
3668	0	29220	
3669	0	29044	
3670	0	29016	
3671	0	28988	
3672	0	28876	
3673	0	28784	
3674	0	28860	
3675	0	28960	
3676	0	28900	
3677	0	28850	
3678	0	28904	
3679	0	28992	
3680	0	29008	
3681	0	28956	
3682	0	29016	
3683	0	29174	
3684	0	29312	
3685	0	29424	
3686	0	29400	
3687	0	29324	
3688	0	29328	
3689	0	29304	
3690	0	29320	
3691	0	29480	
3692	0	29692	
3693	0	29914	
3694	0	29888	
3695	0	29808	
3696	0	29808	
3697	0	29634	
3698	0	29476	
3699	0	29476	
3700	0	29516	
3701	0	29500	
3702	0	29540	
3703	0	29568	
3704	0	29588	
3705	0	29616	
3706	0	29660	
3707	0	29732	
3708	0	29737	
3709	0	29744	
3710	0	29752	
3711	0	29792	
3712	0	29924	
3713	0	30080	
3714	0	30212	
3715	0	30352	
3716	0	30460	
3717	0	30552	
3718	0	30656	
3719	0	30732	
3720	0	30840	
3721	0	31028	
3722	0	31210	
3723	0	31192	
3724	0	31160	
3725	0	31212	
3726	0	31428	
3727	0	31760	
3728	0	32012	
3729	0	32164	
3730	0	32300	
3731	0	32512	
3732	0	32852	
3733	0	33140	
3734	0	33364	
3735	0	33488	
3736	0	33464	
3737	0	33604	
3738	0	33864	
3739	0	34120	
3740	0	34260	
3741	0	34304	
3742	0	34432	
3743	0	34592	
3744	0	34764	
3745	0	34920	
3746	0	35072	
3747	0	35204	
3748	0	35224	
3749	0	35376	
3750	0	35520	
3751	0	35688	
3752	0	35856	
3753	0	35944	
3754	0	35944	
3755	0	35976	
3756	0	36156	
3757	0	36333	
3758	0	36376	
3759	0	36312	
3760	0	36236	
3761	0	36268	
3762	0	36360	
3763	0	36436	
3764	0	36492	
3765	0	36456	
3766	0	36372	
3767	0	36228	
3768	0	36172	
3769	0	36168	
3770	0	36220	
3771	0	36296	
3772	0	36372	
3773	0	36404	
3774	0	36368	
3775	0	36312	
3776	0	36252	
3777	0	36192	
3778	0	36208	
3779	0	36328	
3780	0	36392	
3781	0	36440	
3782	0	36472	
3783	0	36536	
3784	0	36508	
3785	0	36588	
3786	0	36536	
3787	0	36304	
3788	0	36184	
3789	0	36100	
3790	0	35924	
3791	0	35804	
3792	0	35776	
3793	0	35804	
3794	0	35832	
3795	0	35912	
3796	0	36056	
3797	0	36204	
3798	0	36348	
3799	0	36460	
3800	0	36504	
3801	0	36528	
3802	0	36500	
3803	0	36268	
3804	0	36048	
3805	0	35896	
3806	0	35824	
3807	0	35808	
3808	0	35696	
3809	0	35568	
3810	0	35512	
3811	0	35576	
3812	0	35656	
3813	0	35544	
3814	0	35400	
3815	0	35328	
3816	0	35272	
3817	0	35252	
3818	0	35320	
3819	0	35292	
3820	0	35212	
3821	0	35236	
3822	0	35388	
3823	0	35448	
3824	0	35444	
3825	0	35352	
3826	0	35304	
3827	0	35276	
3828	0	35244	
3829	0	35236	
3830	0	35296	
3831	0	35136	
3832	0	35000	
3833	0	34968	
3834	0	34952	
3835	0	34924	
3836	0	34912	
3837	0	34868	
3838	0	34840	
3839	0	34784	
3840	0	34844	
3841	0	34896	
3842	0	34964	
3843	0	34872	
3844	0	34728	
3845	0	34784	
3846	0	34988	
3847	0	34992	
3848	0	34788	
3849	0	34544	
3850	0	34524	
3851	0	34752	
3852	0	34952	
3853	0	34884	
3854	0	34682	
3855	0	34532	
3856	0	34472	
3857	0	34492	
3858	0	34610	
3859	0	34768	
3860	0	34764	
3861	0	34664	
3862	0	34544	
3863	0	34456	
3864	0	34424	
3865	0	34384	
3866	0	34304	
3867	0	34220	
3868	0	34196	
3869	0	34248	
3870	0	34292	
3871	0	34236	
3872	0	34106	
3873	0	34040	
3874	0	34092	
3875	0	34232	
3876	0	34336	
3877	0	34380	
3878	0	34412	
3879	0	34400	
3880	0	34260	
3881	0	34232	
3882	0	34260	
3883	0	34256	
3884	0	34288	
3885	0	34212	
3886	0	34036	
3887	0	33924	
3888	0	34008	
3889	0	33972	
3890	0	33824	
3891	0	33766	
3892	0	33576	
3893	0	33460	
3894	0	33432	
3895	0	33480	
3896	0	33564	
3897	0	33708	
3898	0	33896	
3899	0	34008	
3900	0	34148	
3901	0	34320	
3902	0	34376	
3903	0	34392	
3904	0	34450	
3905	0	34264	
3906	0	33964	
3907	0	33836	
3908	0	33840	
3909	0	33768	
3910	0	33632	
3911	0	33644	
3912	0	33820	
3913	0	34016	
3914	0	34156	
3915	0	34236	
3916	0	34368	
3917	0	34440	
3918	0	34437	
3919	0	34364	
3920	0	34236	
3921	0	34088	
3922	0	33920	
3923	0	33856	
3924	0	33964	
3925	0	34012	
3926	0	33936	
3927	0	33852	
3928	0	33860	
3929	0	33944	
3930	0	33952	
3931	0	33912	
3932	0	33800	
3933	0	33704	
3934	0	33696	
3935	0	33776	
3936	0	33842	
3937	0	33848	
3938	0	33856	
3939	0	33940	
3940	0	34112	
3941	0	34344	
3942	0	34464	
3943	0	34380	
3944	0	34292	
3945	0	34288	
3946	0	34252	
3947	0	34244	
3948	0	34312	
3949	0	34196	
3950	0	33928	
3951	0	33676	
3952	0	33528	
3953	0	33560	
3954	0	33592	
3955	0	33556	
3956	0	33568	
3957	0	33674	
3958	0	33772	
3959	0	33868	
3960	0	33944	
3961	0	33996	
3962	0	34008	
3963	0	33932	
3964	0	33824	
3965	0	33736	
3966	0	33672	
3967	0	33684	
3968	0	33740	
3969	0	33780	
3970	0	33824	
3971	0	33928	
3972	0	33908	
3973	0	33660	
3974	0	33492	
3975	0	33418	
3976	0	33308	
3977	0	33264	
3978	0	33284	
3979	0	33232	
3980	0	33232	
3981	0	33264	
3982	0	33292	
3983	0	33316	
3984	0	33372	
3985	0	33417	
3986	0	33596	
3987	0	33804	
3988	0	33780	
3989	0	33636	
3990	0	33624	
3991	0	33688	
3992	0	33744	
3993	0	33856	
3994	0	33888	
3995	0	33768	
3996	0	33600	
3997	0	33476	
3998	0	33400	
3999	0	33392	
4000	0	33504	
4001	0	33584	
4002	0	33514	
4003	0	33464	
4004	0	33474	
4005	0	33496	
4006	0	33480	
4007	0	33492	
4008	0	33436	
4009	0	33404	
4010	0	33361	
4011	0	33324	
4012	0	33236	
4013	0	33100	
4014	0	33000	
4015	0	32982	
4016	0	33000	
4017	0	33016	
4018	0	33064	
4019	0	33164	
4020	0	33252	
4021	0	33304	
4022	0	33290	
4023	0	33240	
4024	0	33236	
4025	0	33380	
4026	0	33308	
4027	0	32904	
4028	0	32536	
4029	0	32440	
4030	0	32520	
4031	0	32584	
4032	0	32492	
4033	0	32296	
4034	0	32156	
4035	0	32148	
4036	0	32092	
4037	0	31820	
4038	0	31576	
4039	0	31372	
4040	0	31160	
4041	0	30892	
4042	0	30692	
4043	0	30540	
4044	0	30564	
4045	0	30744	
4046	0	30732	
4047	0	30484	
4048	0	30288	
4049	0	30228	
4050	0	30332	
4051	0	30510	
4052	0	30624	
4053	0	30656	
4054	0	30556	
4055	0	30264	
4056	0	29912	
4057	0	29732	
4058	0	29604	
4059	0	29436	
4060	0	29256	
4061	0	29106	
4062	0	28740	
4063	0	28240	
4064	0	27808	
4065	0	27536	
4066	0	27364	
4067	0	27248	
4068	0	27184	
4069	0	27092	
4070	0	26952	
4071	0	26864	
4072	0	26940	
4073	0	27036	
4074	0	27096	
4075	0	27104	
4076	0	27172	
4077	0	27524	
4078	0	28008	
4079	0	28544	
4080	0	29080	
4081	0	29360	
4082	0	29376	
4083	0	29364	
4084	0	29384	
4085	0	29420	
4086	0	29568	
4087	0	29868	
4088	0	30064	
4089	0	30076	
4090	0	30016	
4091	0	29968	
4092	0	30004	
4093	0	30160	
4094	0	30396	
4095	0	30828	
4096	0	31208	
4097	0	31476	
4098	0	31704	
4099	0	31904	
4100	0	32092	
4101	0	32384	
4102	0	32716	
4103	0	33152	
4104	0	33452	
4105	0	33597	
4106	0	33744	
4107	0	34008	
4108	0	34140	
4109	0	34224	
4110	0	34272	
4111	0	34360	
4112	0	34384	
4113	0	34448	
4114	0	34712	
4115	0	34764	
4116	0	34596	
4117	0	34392	
4118	0	34296	
4119	0	34396	
4120	0	34532	
4121	0	34704	
4122	0	34924	
4123	0	35056	
4124	0	34952	
4125	0	34848	
4126	0	34824	
4127	0	34664	
4128	0	34512	
4129	0	34456	
4130	0	34484	
4131	0	34624	
4132	0	34792	
4133	0	34816	
4134	0	34824	
4135	0	35044	
4136	0	35264	
4137	0	35368	
4138	0	35424	
4139	0	35484	
4140	0	35560	
4141	0	35608	
4142	0	35584	
4143	0	35464	
4144	0	35328	
4145	0	35064	
4146	0	34809	
4147	0	34604	
4148	0	34408	
4149	0	34360	
4150	0	34424	
4151	0	34552	
4152	0	34736	
4153	0	34700	
4154	0	34556	
4155	0	34440	
4156	0	34380	
4157	0	34320	
4158	0	34280	
4159	0	34322	
4160	0	34404	
4161	0	34564	
4162	0	34856	
4163	0	35040	
4164	0	34900	
4165	0	34672	
4166	0	34336	
4167	0	33984	
4168	0	33684	
4169	0	33188	
4170	0	32596	
4171	0	31844	
4172	0	30912	
4173	0	29914	
4174	0	28708	
4175	0	27236	
4176	0	25904	
4177	0	24572	
4178	0	23120	
4179	0	21636	
4180	0	20100	
4181	0	18488	
4182	0	16856	
4183	0	14844	
4184	0	12670	
4185	0	10644	
4186	0	8638	
4187	0	6586	
4188	0	4592	
4189	0	2695	
4190	0	1263	
4191	0	553	
4192	0	696	
4193	0	1858	
4194	0	3732	
4195	0	6733	
4196	0	11096	
4197	0	16096	
4198	0	21083	
4199	0	25592	
4200	0	29800	
4201	0	33736	
4202	0	37528	
4203	0	41184	
4204	0	44456	
4205	0	47272	
4206	0	49524	
4207	0	51336	
4208	0	52936	
4209	0	54400	
4210	0	55688	
4211	0	56538	
4212	0	56828	
4213	0	56520	
4214	0	55872	
4215	0	55136	
4216	0	54200	
4217	0	52848	
4218	0	51128	
4219	0	49192	
4220	0	47320	
4221	0	45392	
4222	0	43368	
4223	0	41584	
4224	0	40256	
4225	0	39264	
4226	0	38368	
4227	0	37544	
4228	0	36840	
4229	0	36268	
4230	0	35804	
4231	0	35408	
4232	0	34832	
4233	0	34224	
4234	0	33808	
4235	0	33424	
4236	0	33244	
4237	0	33300	
4238	0	33328	
4239	0	33280	
4240	0	33336	
4241	0	33392	
4242	0	33384	
4243	0	33364	
4244	0	33340	
4245	0	33272	
4246	0	33272	
4247	0	33280	
4248	0	33160	
4249	0	33080	
4250	0	33060	
4251	0	33076	
4252	0	33088	
4253	0	32992	
4254	0	32800	
4255	0	32644	
4256	0	32624	
4257	0	32742	
4258	0	32800	
4259	0	32746	
4260	0	32672	
4261	0	32684	
4262	0	32836	
4263	0	33016	
4264	0	33040	
4265	0	33036	
4266	0	32920	
4267	0	32840	
4268	0	32781	
4269	0	32628	
4270	0	32436	
4271	0	32241	
4272	0	32164	
4273	0	32140	
4274	0	32064	
4275	0	31974	
4276	0	31896	
4277	0	31760	
4278	0	31660	
4279	0	31616	
4280	0	31684	
4281	0	31825	
4282	0	31952	
4283	0	31936	
4284	0	31968	
4285	0	32013	
4286	0	32004	
4287	0	31916	
4288	0	31840	
4289	0	31804	
4290	0	31824	
4291	0	31840	
4292	0	31816	
4293	0	31708	
4294	0	31464	
4295	0	31208	
4296	0	31060	
4297	0	30940	
4298	0	31016	
4299	0	31136	
4300	0	31092	
4301	0	31108	
4302	0	31216	
4303	0	31144	
4304	0	30884	
4305	0	30674	
4306	0	30512	
4307	0	30264	
4308	0	30256	
4309	0	30476	
4310	0	30692	
4311	0	30764	
4312	0	30804	
4313	0	30778	
4314	0	30730	
4315	0	30684	
4316	0	30862	
4317	0	30908	
4318	0	30708	
4319	0	30520	
4320	0	30318	
4321	0	30132	
4322	0	30004	
4323	0	29860	
4324	0	29766	
4325	0	29788	
4326	0	29792	
4327	0	29756	
4328	0	29688	
4329	0	29564	
4330	0	29472	
4331	0	29472	
4332	0	29640	
4333	0	29568	
4334	0	29434	
4335	0	29384	
4336	0	29424	
4337	0	29428	
4338	0	29320	
4339	0	29188	
4340	0	29148	
4341	0	29140	
4342	0	29100	
4343	0	29112	
4344	0	29056	
4345	0	28972	
4346	0	28876	
4347	0	28744	
4348	0	28664	
4349	0	28584	
4350	0	28532	
4351	0	28516	
4352	0	28564	
4353	0	28756	
4354	0	28676	
4355	0	28536	
4356	0	28456	
4357	0	28346	
4358	0	28220	
4359	0	28184	
4360	0	28185	
4361	0	28066	
4362	0	28020	
4363	0	27952	
4364	0	27968	
4365	0	28100	
4366	0	28220	
4367	0	28208	
4368	0	28200	
4369	0	28180	
4370	0	28109	
4371	0	28004	
4372	0	28106	
4373	0	28128	
4374	0	27996	
4375	0	27952	
4376	0	27944	
4377	0	27968	
4378	0	28060	
4379	0	28240	
4380	0	28358	
4381	0	28236	
4382	0	28148	
4383	0	28100	
4384	0	28084	
4385	0	28132	
4386	0	28160	
4387	0	28072	
4388	0	28040	
4389	0	28124	
4390	0	28156	
4391	0	28234	
4392	0	28386	
4393	0	28576	
4394	0	28696	
4395	0	28832	
4396	0	28990	
4397	0	28908	
4398	0	28680	
4399	0	28544	
4400	0	28484	
4401	0	28490	
4402	0	28570	
4403	0	28640	
4404	0	28716	
4405	0	28844	
4406	0	29028	
4407	0	29180	
4408	0	29160	
4409	0	29016	
4410	0	28876	
4411	0	28736	
4412	0	28688	
4413	0	28736	
4414	0	28812	
4415	0	28948	
4416	0	29176	
4417	0	29400	
4418	0	29512	
4419	0	29520	
4420	0	29552	
4421	0	29520	
4422	0	29512	
4423	0	29550	
4424	0	29656	
4425	0	29788	
4426	0	29856	
4427	0	29980	
4428	0	30124	
4429	0	30368	
4430	0	30568	
4431	0	30696	
4432	0	30828	
4433	0	31036	
4434	0	31324	
4435	0	31764	
4436	0	32050	
4437	0	32136	
4438	0	32204	
4439	0	32288	
4440	0	32384	
4441	0	32464	
4442	0	32560	
4443	0	32728	
4444	0	32912	
4445	0	33124	
4446	0	33300	
4447	0	33428	
4448	0	33496	
4449	0	33476	
4450	0	33512	
4451	0	33704	
4452	0	33896	
4453	0	34108	
4454	0	34208	
4455	0	34148	
4456	0	34156	
4457	0	34380	
4458	0	34632	
4459	0	34816	
4460	0	34796	
4461	0	34648	
4462	0	34528	
4463	0	34588	
4464	0	34656	
4465	0	34620	
4466	0	34432	
4467	0	34108	
4468	0	33888	
4469	0	33852	
4470	0	34024	
4471	0	34328	
4472	0	34544	
4473	0	34664	
4474	0	34804	
4475	0	34976	
4476	0	35180	
4477	0	35176	
4478	0	35196	
4479	0	35404	
4480	0	35524	
4481	0	35408	
4482	0	35120	
4483	0	35056	
4484	0	35212	
4485	0	35348	
4486	0	35492	
4487	0	35640	
4488	0	35736	
4489	0	35700	
4490	0	35496	
4491	0	35352	
4492	0	35272	
4493	0	35404	
4494	0	35512	
4495	0	35472	
4496	0	35336	
4497	0	35196	
4498	0	35120	
4499	0	35176	
4500	0	35208	
4501	0	35160	
4502	0	35068	
4503	0	34952	
4504	0	34904	
4505	0	34816	
4506	0	34744	
4507	0	34744	
4508	0	34768	
4509	0	34904	
4510	0	34952	
4511	0	34808	
4512	0	34616	
4513	0	34556	
4514	0	34544	
4515	0	34528	
4516	0	34392	
4517	0	34232	
4518	0	34224	
4519	0	34264	
4520	0	34344	
4521	0	34476	
4522	0	34608	
4523	0	34736	
4524	0	34800	
4525	0	34800	
4526	0	34748	
4527	0	34680	
4528	0	34728	
4529	0	34768	
4530	0	34624	
4531	0	34324	
4532	0	34080	
4533	0	33980	
4534	0	34028	
4535	0	34220	
4536	0	34068	
4537	0	33716	
4538	0	33520	
4539	0	33512	
4540	0	33528	
4541	0	33440	
4542	0	33408	
4543	0	33536	
4544	0	33736	
4545	0	33828	
4546	0	33904	
4547	0	33968	
4548	0	33776	
4549	0	33412	
4550	0	33244	
4551	0	33196	
4552	0	33176	
4553	0	33036	
4554	0	32896	
4555	0	32769	
4556	0	32704	
4557	0	32776	
4558	0	32960	
4559	0	33192	
4560	0	33300	
4561	0	33296	
4562	0	33260	
4563	0	33220	
4564	0	33082	
4565	0	32944	
4566	0	32844	
4567	0	32792	
4568	0	32684	
4569	0	32544	
4570	0	32540	
4571	0	32610	
4572	0	32616	
4573	0	32560	
4574	0	32572	
4575	0	32752	
4576	0	32780	
4577	0	32760	
4578	0	32636	
4579	0	32616	
4580	0	32632	
4581	0	32556	
4582	0	32576	
4583	0	32656	
4584	0	32616	
4585	0	32644	
4586	0	32800	
4587	0	32960	
4588	0	33004	
4589	0	33144	
4590	0	33208	
4591	0	33020	
4592	0	33024	
4593	0	33182	
4594	0	33432	
4595	0	33380	
4596	0	33248	
4597	0	33268	
4598	0	33312	
4599	0	33132	
4600	0	32964	
4601	0	32908	
4602	0	32808	
4603	0	32776	
4604	0	32816	
4605	0	32728	
4606	0	32724	
4607	0	32588	
4608	0	32464	
4609	0	32704	
4610	0	32944	
4611	0	32944	
4612	0	32956	
4613	0	33108	
4614	0	33184	
4615	0	33152	
4616	0	33136	
4617	0	33104	
4618	0	33160	
4619	0	33292	
4620	0	33292	
4621	0	33288	
4622	0	33320	
4623	0	33328	
4624	0	33284	
4625	0	33220	
4626	0	33188	
4627	0	33120	
4628	0	33124	
4629	0	33216	
4630	0	33224	
4631	0	33192	
4632	0	33128	
4633	0	32948	
4634	0	32824	
4635	0	32782	
4636	0	32704	
4637	0	32624	
4638	0	32680	
4639	0	32724	
4640	0	32720	
4641	0	32756	
4642	0	32708	
4643	0	32592	
4644	0	32648	
4645	0	32736	
4646	0	32784	
4647	0	32832	
4648	0	33028	
4649	0	33100	
4650	0	32988	
4651	0	32940	
4652	0	32880	
4653	0	32816	
4654	0	32792	
4655	0	32776	
4656	0	32752	
4657	0	32664	
4658	0	32544	
4659	0	32672	
4660	0	32916	
4661	0	33032	
4662	0	33008	
4663	0	32744	
4664	0	32708	
4665	0	32761	
4666	0	32769	
4667	0	32660	
4668	0	32568	
4669	0	32512	
4670	0	32496	
4671	0	32512	
4672	0	32540	
4673	0	32472	
4674	0	32452	
4675	0	32544	
4676	0	32552	
4677	0	32472	
4678	0	32212	
4679	0	32216	
4680	0	32236	
4681	0	32152	
4682	0	32052	
4683	0	31844	
4684	0	31632	
4685	0	31472	
4686	0	31380	
4687	0	31240	
4688	0	30968	
4689	0	30712	
4690	0	30490	
4691	0	30420	
4692	0	30460	
4693	0	30588	
4694	0	30600	
4695	0	30420	
4696	0	30280	
4697	0	30312	
4698	0	30500	
4699	0	30588	
4700	0	30568	
4701	0	30648	
4702	0	30712	
4703	0	30652	
4704	0	30444	
4705	0	30160	
4706	0	29852	
4707	0	29724	
4708	0	29584	
4709	0	29168	
4710	0	28644	
4711	0	28224	
4712	0	27792	
4713	0	27526	
4714	0	27456	
4715	0	27404	
4716	0	27176	
4717	0	26828	
4718	0	26448	
4719	0	26173	
4720	0	26138	
4721	0	26364	
4722	0	26605	
4723	0	26740	
4724	0	26984	
4725	0	27424	
4726	0	27848	
4727	0	28040	
4728	0	28116	
4729	0	28240	
4730	0	28372	
4731	0	28402	
4732	0	28392	
4733	0	28576	
4734	0	28812	
4735	0	28888	
4736	0	29140	
4737	0	29552	
4738	0	29880	
4739	0	30004	
4740	0	30048	
4741	0	30172	
4742	0	30320	
4743	0	30518	
4744	0	30736	
4745	0	30860	
4746	0	31024	
4747	0	31160	
4748	0	31288	
4749	0	31656	
4750	0	32100	
4751	0	32472	
4752	0	32788	
4753	0	33044	
4754	0	33256	
4755	0	33472	
4756	0	33672	
4757	0	33896	
4758	0	34072	
4759	0	34128	
4760	0	34188	
4761	0	34336	
4762	0	34482	
4763	0	34504	
4764	0	34460	
4765	0	34428	
4766	0	34532	
4767	0	34708	
4768	0	34748	
4769	0	34660	
4770	0	34644	
4771	0	34580	
4772	0	34720	
4773	0	34824	
4774	0	34864	
4775	0	34980	
4776	0	34920	
4777	0	34776	
4778	0	34752	
4779	0	34832	
4780	0	34940	
4781	0	34936	
4782	0	34868	
4783	0	34828	
4784	0	34768	
4785	0	34704	
4786	0	34716	
4787	0	34796	
4788	0	34764	
4789	0	34680	
4790	0	34504	
4791	0	34412	
4792	0	34432	
4793	0	34404	
4794	0	34352	
4795	0	34376	
4796	0	34440	
4797	0	34376	
4798	0	34200	
4799	0	34068	
4800	0	33968	
4801	0	33952	
4802	0	33920	
4803	0	33992	
4804	0	34124	
4805	0	34282	
4806	0	34208	
4807	0	34072	
4808	0	34017	
4809	0	34108	
4810	0	34216	
4811	0	34300	
4812	0	34332	
4813	0	34324	
4814	0	34452	
4815	0	34580	
4816	0	34480	
4817	0	34100	
4818	0	33680	
4819	0	33136	
4820	0	32212	
4821	0	31332	
4822	0	30376	
4823	0	29254	
4824	0	28124	
4825	0	27156	
4826	0	26092	
4827	0	24792	
4828	0	23368	
4829	0	21884	
4830	0	20316	
4831	0	18680	
4832	0	17176	
4833	0	15536	
4834	0	13708	
4835	0	11673	
4836	0	9564	
4837	0	7549	
4838	0	5654	
4839	0	3984	
4840	0	2762	
4841	0	2200	
4842	0	2381	
4843	0	3667	
4844	0	5860	
4845	0	9236	
4846	0	13642	
4847	0	18770	
4848	0	23756	
4849	0	28032	
4850	0	31992	
4851	0	36012	
4852	0	39928	
4853	0	43412	
4854	0	46476	
4855	0	48980	
4856	0	50584	
4857	0	51800	
4858	0	52936	
4859	0	53968	
4860	0	54780	
4861	0	55284	
4862	0	55376	
4863	0	55392	
4864	0	55168	
4865	0	54712	
4866	0	54072	
4867	0	52944	
4868	0	51464	
4869	0	49772	
4870	0	48040	
4871	0	46364	
4872	0	44672	
4873	0	43040	
4874	0	41524	
4875	0	40112	
4876	0	38668	
4877	0	37412	
4878	0	36400	
4879	0	35536	
4880	0	34920	
4881	0	34300	
4882	0	33728	
4883	0	33204	
4884	0	32840	
4885	0	32604	
4886	0	32405	
4887	0	32028	
4888	0	31724	
4889	0	31460	
4890	0	31228	
4891	0	31072	
4892	0	31088	
4893	0	30992	
4894	0	30840	
4895	0	30748	
4896	0	30972	
4897	0	31168	
4898	0	31220	
4899	0	31240	
4900	0	31216	
4901	0	31072	
4902	0	30972	
4903	0	31016	
4904	0	30970	
4905	0	30977	
4906	0	30976	
4907	0	30968	
4908	0	30972	
4909	0	30868	
4910	0	30954	
4911	0	30876	
4912	0	30697	
4913	0	30592	
4914	0	30668	
4915	0	30792	
4916	0	30956	
4917	0	30992	
4918	0	30880	
4919	0	30792	
4920	0	30800	
4921	0	30658	
4922	0	30388	
4923	0	30280	
4924	0	30272	
4925	0	30512	
4926	0	30500	
4927	0	30256	
4928	0	30184	
4929	0	30200	
4930	0	30296	
4931	0	30256	
4932	0	30228	
4933	0	30168	
4934	0	30156	
4935	0	30184	
4936	0	30176	
4937	0	30148	
4938	0	30080	
4939	0	29876	
4940	0	29612	
4941	0	29660	
4942	0	29784	
4943	0	30028	
4944	0	30268	
4945	0	30248	
4946	0	30000	
4947	0	29818	
4948	0	29740	
4949	0	29712	
4950	0	29476	
4951	0	29520	
4952	0	29568	
4953	0	29572	
4954	0	29664	
4955	0	29736	
4956	0	29804	
4957	0	29780	
4958	0	29452	
4959	0	29068	
4960	0	28868	
4961	0	28776	
4962	0	28960	
4963	0	29076	
4964	0	29026	
4965	0	28861	
4966	0	28660	
4967	0	28768	
4968	0	28856	
4969	0	28720	
4970	0	28700	
4971	0	28624	
4972	0	28396	
4973	0	27984	
4974	0	27788	
4975	0	27784	
4976	0	27804	
4977	0	27912	
4978	0	28304	
4979	0	28532	
4980	0	28536	
4981	0	28356	
4982	0	28104	
4983	0	27864	
4984	0	27724	
4985	0	27424	
4986	0	27154	
4987	0	27064	
4988	0	27340	
4989	0	27576	
4990	0	27636	
4991	0	27656	
4992	0	27440	
4993	0	27116	
4994	0	27008	
4995	0	27056	
4996	0	27092	
4997	0	27080	
4998	0	26976	
4999	0	26880	
5000	0	26752	
5001	0	26605	
5002	0	26656	
5003	0	26820	
5004	0	26712	
5005	0	26616	
5006	0	26536	
5007	0	26586	
5008	0	26628	
5009	0	26586	
5010	0	26484	
5011	0	26324	
5012	0	26208	
5013	0	26176	
5014	0	26332	
5015	0	26520	
5016	0	26476	
5017	0	26249	
5018	0	26228	
5019	0	26340	
5020	0	26620	
5021	0	26856	
5022	0	26844	
5023	0	26548	
5024	0	26304	
5025	0	26248	
5026	0	26230	
5027	0	26264	
5028	0	26240	
5029	0	26264	
5030	0	26376	
5031	0	26608	
5032	0	26756	
5033	0	26744	
5034	0	26624	
5035	0	26500	
5036	0	26332	
5037	0	26440	
5038	0	26552	
5039	0	26652	
5040	0	26808	
5041	0	26912	
5042	0	27024	
5043	0	27060	
5044	0	27000	
5045	0	26904	
5046	0	27076	
5047	0	27296	
5048	0	27276	
5049	0	27136	
5050	0	27040	
5051	0	27016	
5052	0	27240	
5053	0	27372	
5054	0	27224	
5055	0	27094	
5056	0	27177	
5057	0	27332	
5058	0	27481	
5059	0	27800	
5060	0	27960	
5061	0	28024	
5062	0	28048	
5063	0	28036	
5064	0	28044	
5065	0	28076	
5066	0	28208	
5067	0	28316	
5068	0	28536	
5069	0	28588	
5070	0	28508	
5071	0	28418	
5072	0	28568	
5073	0	28790	
5074	0	28968	
5075	0	29188	
5076	0	29528	
5077	0	29652	
5078	0	29636	
5079	0	29728	
5080	0	30000	
5081	0	30424	
5082	0	30804	
5083	0	31032	
5084	0	31160	
5085	0	31210	
5086	0	31352	
5087	0	31568	
5088	0	31736	
5089	0	31936	
5090	0	32124	
5091	0	32192	
5092	0	32320	
5093	0	32496	
5094	0	32652	
5095	0	32796	
5096	0	32940	
5097	0	33124	
5098	0	33224	
5099	0	33200	
5100	0	33376	
5101	0	33666	
5102	0	33892	
5103	0	33996	
5104	0	33928	
5105	0	33928	
5106	0	34137	
5107	0	34260	
5108	0	34360	
5109	0	34464	
5110	0	34604	
5111	0	34780	
5112	0	35088	
5113	0	35316	
5114	0	35412	
5115	0	35620	
5116	0	35668	
5117	0	35556	
5118	0	35480	
5119	0	35400	
5120	0	35284	
5121	0	35352	
5122	0	35648	
5123	0	35676	
5124	0	35620	
5125	0	35688	
5126	0	35804	
5127	0	35760	
5128	0	35644	
5129	0	35744	
5130	0	35824	
5131	0	35769	
5132	0	35736	
5133	0	35652	
5134	0	35788	
5135	0	35956	
5136	0	35732	
5137	0	35336	
5138	0	35080	
5139	0	35048	
5140	0	35180	
5141	0	35272	
5142	0	35312	
5143	0	35472	
5144	0	35640	
5145	0	35788	
5146	0	35872	
5147	0	35892	
5148	0	36000	
5149	0	35844	
5150	0	35624	
5151	0	35448	
5152	0	35384	
5153	0	35416	
5154	0	35340	
5155	0	35244	
5156	0	35228	
5157	0	35256	
5158	0	35256	
5159	0	35192	
5160	0	35148	
5161	0	35084	
5162	0	35052	
5163	0	35152	
5164	0	35280	
5165	0	35296	
5166	0	35152	
5167	0	34884	
5168	0	34768	
5169	0	34696	
5170	0	34600	
5171	0	34552	
5172	0	34508	
5173	0	34484	
5174	0	34456	
5175	0	34584	
5176	0	34680	
5177	0	34736	
5178	0	34708	
5179	0	34760	
5180	0	34696	
5181	0	34344	
5182	0	34060	
5183	0	34008	
5184	0	34196	
5185	0	34476	
5186	0	34664	
5187	0	34488	
5188	0	34232	
5189	0	34224	
5190	0	34360	
5191	0	34492	
5192	0	34636	
5193	0	34672	
5194	0	34616	
5195	0	34684	
5196	0	34968	
5197	0	35264	
5198	0	35368	
5199	0	35320	
5200	0	35072	
5201	0	34776	
5202	0	34468	
5203	0	34304	
5204	0	34180	
5205	0	33984	
5206	0	34104	
5207	0	34332	
5208	0	34384	
5209	0	34212	
5210	0	34132	
5211	0	34114	
5212	0	33956	
5213	0	33668	
5214	0	33560	
5215	0	33628	
5216	0	33760	
5217	0	33792	
5218	0	33784	
5219	0	33936	
5220	0	33896	
5221	0	33576	
5222	0	33260	
5223	0	33180	
5224	0	33156	
5225	0	32956	
5226	0	32744	
5227	0	32696	
5228	0	32724	
5229	0	32784	
5230	0	32752	
5231	0	32664	
5232	0	32680	
5233	0	32600	
5234	0	32448	
5235	0	32492	
5236	0	32632	
5237	0	32708	
5238	0	32645	
5239	0	32412	
5240	0	32284	
5241	0	32300	
5242	0	32352	
5243	0	32396	
5244	0	32416	
5245	0	32416	
5246	0	32444	
5247	0	32516	
5248	0	32588	
5249	0	32668	
5250	0	32768	
5251	0	32882	
5252	0	32996	
5253	0	32960	
5254	0	32876	
5255	0	32972	
5256	0	33068	
5257	0	33072	
5258	0	33028	
5259	0	33048	
5260	0	33160	
5261	0	33352	
5262	0	33576	
5263	0	33572	
5264	0	33328	
5265	0	33104	
5266	0	32928	
5267	0	32792	
5268	0	32720	
5269	0	32812	
5270	0	33024	
5271	0	33028	
5272	0	32904	
5273	0	32824	
5274	0	32888	
5275	0	33008	
5276	0	32948	
5277	0	32844	
5278	0	32916	
5279	0	33000	
5280	0	33100	
5281	0	33240	
5282	0	33312	
5283	0	33344	
5284	0	33284	
5285	0	33112	
5286	0	32924	
5287	0	32932	
5288	0	33008	
5289	0	32900	
5290	0	32704	
5291	0	32732	
5292	0	32766	
5293	0	32768	
5294	0	32780	
5295	0	32836	
5296	0	32906	
5297	0	32896	
5298	0	32968	
5299	0	33004	
5300	0	32869	
5301	0	32770	
5302	0	32716	
5303	0	32640	
5304	0	32520	
5305	0	32504	
5306	0	32496	
5307	0	32720	
5308	0	32972	
5309	0	33012	
5310	0	33008	
5311	0	33020	
5312	0	33016	
5313	0	33052	
5314	0	33172	
5315	0	33260	
5316	0	33104	
5317	0	33136	
5318	0	33306	
5319	0	33264	
5320	0	33080	
5321	0	32916	
5322	0	32840	
5323	0	32932	
5324	0	33136	
5325	0	33120	
5326	0	32984	
5327	0	32890	
5328	0	32640	
5329	0	32538	
5330	0	32528	
5331	0	32544	
5332	0	32520	
5333	0	32488	
5334	0	32380	
5335	0	32092	
5336	0	31836	
5337	0	31744	
5338	0	31744	
5339	0	31768	
5340	0	31616	
5341	0	31516	
5342	0	31488	
5343	0	31388	
5344	0	31206	
5345	0	30940	
5346	0	30666	
5347	0	30490	
5348	0	30284	
5349	0	30164	
5350	0	30112	
5351	0	30116	
5352	0	30152	
5353	0	30138	
5354	0	30008	
5355	0	29856	
5356	0	29882	
5357	0	30060	
5358	0	30208	
5359	0	30176	
5360	0	30156	
5361	0	30172	
5362	0	29988	
5363	0	29712	
5364	0	29464	
5365	0	29212	
5366	0	29100	
5367	0	28908	
5368	0	28574	
5369	0	28216	
5370	0	27900	
5371	0	27800	
5372	0	27890	
5373	0	27930	
5374	0	27786	
5375	0	27628	
5376	0	27308	
5377	0	27004	
5378	0	26828	
5379	0	26784	
5380	0	26908	
5381	0	27068	
5382	0	27144	
5383	0	27168	
5384	0	27408	
5385	0	27692	
5386	0	27860	
5387	0	28096	
5388	0	28362	
5389	0	28540	
5390	0	28808	
5391	0	28996	
5392	0	29156	
5393	0	29424	
5394	0	29665	
5395	0	29776	
5396	0	29770	
5397	0	29728	
5398	0	29688	
5399	0	29740	
5400	0	29820	
5401	0	29928	
5402	0	30196	
5403	0	30460	
5404	0	30676	
5405	0	30912	
5406	0	31213	
5407	0	31464	
5408	0	31748	
5409	0	31976	
5410	0	32164	
5411	0	32570	
5412	0	32936	
5413	0	33156	
5414	0	33376	
5415	0	33636	
5416	0	33928	
5417	0	34106	
5418	0	34296	
5419	0	34492	
5420	0	34604	
5421	0	34740	
5422	0	34880	
5423	0	34892	
5424	0	34916	
5425	0	34916	
5426	0	34808	
5427	0	34704	
5428	0	34624	
5429	0	34606	
5430	0	34548	
5431	0	34544	
5432	0	34668	
5433	0	34896	
5434	0	35068	
5435	0	35284	
5436	0	35396	
5437	0	35424	
5438	0	35516	
5439	0	35560	
5440	0	35472	
5441	0	35348	
5442	0	35240	
5443	0	35196	
5444	0	35232	
5445	0	35292	
5446	0	35360	
5447	0	35332	
5448	0	35308	
5449	0	35356	
5450	0	35456	
5451	0	35536	
5452	0	35576	
5453	0	35584	
5454	0	35604	
5455	0	35416	
5456	0	35156	
5457	0	35048	
5458	0	35088	
5459	0	35018	
5460	0	34840	
5461	0	34724	
5462	0	34720	
5463	0	34852	
5464	0	34992	
5465	0	34988	
5466	0	34908	
5467	0	34748	
5468	0	34680	
5469	0	34828	
5470	0	35216	
5471	0	35806	
5472	0	35884	
5473	0	35496	
5474	0	35152	
5475	0	34916	
5476	0	34748	
5477	0	34584	
5478	0	34212	
5479	0	33652	
5480	0	32988	
5481	0	32024	
5482	0	30776	
5483	0	29544	
5484	0	28244	
5485	0	26992	
5486	0	25860	
5487	0	24600	
5488	0	23312	
5489	0	21916	
5490	0	20350	
5491	0	18768	
5492	0	16946	
5493	0	14872	
5494	0	12730	
5495	0	10608	
5496	0	8572	
5497	0	6576	
5498	0	4813	
5499	0	3914	
5500	0	3523	
5501	0	3374	
5502	0	3338	
5503	0	3378	
5504	0	3462	
5505	0	7045	
5506	0	12154	
5507	0	17374	
5508	0	22008	
5509	0	26144	
5510	0	30040	
5511	0	33824	
5512	0	37708	
5513	0	41600	
5514	0	45312	
5515	0	48288	
5516	0	50296	
5517	0	51976	
5518	0	53592	
5519	0	55064	
5520	0	55968	
5521	0	56316	
5522	0	56376	
5523	0	56184	
5524	0	55832	
5525	0	55076	
5526	0	54080	
5527	0	52868	
5528	0	51328	
5529	0	49392	
5530	0	47300	
5531	0	45384	
5532	0	43704	
5533	0	42232	
5534	0	41000	
5535	0	39908	
5536	0	38780	
5537	0	37776	
5538	0	36976	
5539	0	36344	
5540	0	35812	
5541	0	35272	
5542	0	34772	
5543	0	34292	
5544	0	33856	
5545	0	33740	
5546	0	33544	
5547	0	33296	
5548	0	33056	
5549	0	32960	
5550	0	33000	
5551	0	33024	
5552	0	32968	
5553	0	32968	
5554	0	33144	
5555	0	33224	
5556	0	33120	
5557	0	33168	
5558	0	33284	
5559	0	33304	
5560	0	33320	
5561	0	33336	
5562	0	33300	
5563	0	33356	
5564	0	33340	
5565	0	33114	
5566	0	32928	
5567	0	32824	
5568	0	32824	
5569	0	32852	
5570	0	32840	
5571	0	32716	
5572	0	32712	
5573	0	32970	
5574	0	33036	
5575	0	32900	
5576	0	32826	
5577	0	32868	
5578	0	32920	
5579	0	32916	
5580	0	33000	
5581	0	33020	
5582	0	32900	
5583	0	32780	
5584	0	32812	
5585	0	32852	
5586	0	32768	
5587	0	32628	
5588	0	32408	
5589	0	32240	
5590	0	32156	
5591	0	32084	
5592	0	31964	
5593	0	31908	
5594	0	31888	
5595	0	31844	
5596	0	31710	
5597	0	31552	
5598	0	31576	
5599	0	31696	
5600	0	31568	
5601	0	31392	
5602	0	31272	
5603	0	31320	
5604	0	31328	
5605	0	31104	
5606	0	30816	
5607	0	30732	
5608	0	30824	
5609	0	30832	
5610	0	30740	
5611	0	30684	
5612	0	30776	
5613	0	30920	
5614	0	31024	
5615	0	31168	
5616	0	31196	
5617	0	31040	
5618	0	30861	
5619	0	30652	
5620	0	30600	
5621	0	30716	
5622	0	30772	
5623	0	30680	
5624	0	30488	
5625	0	30300	
5626	0	30248	
5627	0	30328	
5628	0	30272	
5629	0	30168	
5630	0	30020	
5631	0	29956	
5632	0	29908	
5633	0	29932	
5634	0	30036	
5635	0	30024	
5636	0	29880	
5637	0	29756	
5638	0	29697	
5639	0	29616	
5640	0	29560	
5641	0	29592	
5642	0	29580	
5643	0	29544	
5644	0	29652	
5645	0	29696	
5646	0	29492	
5647	0	29244	
5648	0	29276	
5649	0	29348	
5650	0	29404	
5651	0	29578	
5652	0	29498	
5653	0	29144	
5654	0	28920	
5655	0	28828	
5656	0	28732	
5657	0	28612	
5658	0	28664	
5659	0	28662	
5660	0	28564	
5661	0	28528	
5662	0	28560	
5663	0	28576	
5664	0	28400	
5665	0	28260	
5666	0	28036	
5667	0	27980	
5668	0	28144	
5669	0	28272	
5670	0	28240	
5671	0	27972	
5672	0	27564	
5673	0	27352	
5674	0	27248	
5675	0	27234	
5676	0	27216	
5677	0	27244	
5678	0	27212	
5679	0	27224	
5680	0	27286	
5681	0	27394	
5682	0	27508	
5683	0	27677	
5684	0	27672	
5685	0	27616	
5686	0	27610	
5687	0	27576	
5688	0	27540	
5689	0	27645	
5690	0	27884	
5691	0	27892	
5692	0	27696	
5693	0	27492	
5694	0	27336	
5695	0	27192	
5696	0	27132	
5697	0	27232	
5698	0	27264	
5699	0	27240	
5700	0	27170	
5701	0	27132	
5702	0	27124	
5703	0	27128	
5704	0	27192	
5705	0	27300	
5706	0	27284	
5707	0	27184	
5708	0	27140	
5709	0	27242	
5710	0	27392	
5711	0	27604	
5712	0	27776	
5713	0	27812	
5714	0	27788	
5715	0	27752	
5716	0	27794	
5717	0	27912	
5718	0	28008	
5719	0	28138	
5720	0	28336	
5721	0	28432	
5722	0	28544	
5723	0	28736	
5724	0	28864	
5725	0	28900	
5726	0	28872	
5727	0	28852	
5728	0	28848	
5729	0	28908	
5730	0	29160	
5731	0	29516	
5732	0	29772	
5733	0	29888	
5734	0	29944	
5735	0	29992	
5736	0	29908	
5737	0	29872	
5738	0	29940	
5739	0	30160	
5740	0	30488	
5741	0	30700	
5742	0	30852	
5743	0	30992	
5744	0	31220	
5745	0	31496	
5746	0	31784	
5747	0	31952	
5748	0	32112	
5749	0	32288	
5750	0	32416	
5751	0	32456	
5752	0	32604	
5753	0	32832	
5754	0	33132	
5755	0	33438	
5756	0	33736	
5757	0	34008	
5758	0	34268	
5759	0	34504	
5760	0	34708	
5761	0	34828	
5762	0	34852	
5763	0	34828	
5764	0	34968	
5765	0	35236	
5766	0	35464	
5767	0	35532	
5768	0	35592	
5769	0	35712	
5770	0	35800	
5771	0	35744	
5772	0	35752	
5773	0	35716	
5774	0	35870	
5775	0	36052	
5776	0	36164	
5777	0	36240	
5778	0	36048	
5779	0	35764	
5780	0	35500	
5781	0	35328	
5782	0	35280	
5783	0	35396	
5784	0	35620	
5785	0	35764	
5786	0	35796	
5787	0	35792	
5788	0	35856	
5789	0	35952	
5790	0	35952	
5791	0	35904	
5792	0	35884	
5793	0	35956	
5794	0	36080	
5795	0	36176	
5796	0	36208	
5797	0	36340	
5798	0	36476	
5799	0	36568	
5800	0	36580	
5801	0	36472	
5802	0	36332	
5803	0	36280	
5804	0	36360	
5805	0	36404	
5806	0	36416	
5807	0	36472	
5808	0	36572	
5809	0	36556	
5810	0	36564	
5811	0	36472	
5812	0	36392	
5813	0	36268	
5814	0	36352	
5815	0	36576	
5816	0	36708	
5817	0	36744	
5818	0	36644	
5819	0	36568	
5820	0	36464	
5821	0	36408	
5822	0	36432	
5823	0	36572	
5824	0	36724	
5825	0	36684	
5826	0	36616	
5827	0	36624	
5828	0	36548	
5829	0	36464	
5830	0	36516	
5831	0	36432	
5832	0	36228	
5833	0	36144	
5834	0	36068	
5835	0	36024	
5836	0	35984	
5837	0	35924	
5838	0	35812	
5839	0	35740	
5840	0	35568	
5841	0	35436	
5842	0	35428	
5843	0	35644	
5844	0	35684	
5845	0	35620	
5846	0	35576	
5847	0	35584	
5848	0	35584	
5849	0	35568	
5850	0	35644	
5851	0	35648	
5852	0	35764	
5853	0	35880	
5854	0	35788	
5855	0	35760	
5856	0	35688	
5857	0	35696	
5858	0	35628	
5859	0	35460	
5860	0	35432	
5861	0	35428	
5862	0	35288	
5863	0	35312	
5864	0	35384	
5865	0	35440	
5866	0	35388	
5867	0	35276	
5868	0	35352	
5869	0	35380	
5870	0	35184	
5871	0	35112	
5872	0	35084	
5873	0	35064	
5874	0	35176	
5875	0	35308	
5876	0	35268	
5877	0	35068	
5878	0	34996	
5879	0	35232	
5880	0	35492	
5881	0	35408	
5882	0	35304	
5883	0	35422	
5884	0	35424	
5885	0	35426	
5886	0	35152	
5887	0	34748	
5888	0	34468	
5889	0	34476	
5890	0	34576	
5891	0	34752	
5892	0	34656	
5893	0	34484	
5894	0	34276	
5895	0	34068	
5896	0	33968	
5897	0	34032	
5898	0	34148	
5899	0	34092	
5900	0	34094	
5901	0	34185	
5902	0	34296	
5903	0	34472	
5904	0	34660	
5905	0	34576	
5906	0	34628	
5907	0	34808	
5908	0	34829	
5909	0	34700	
5910	0	34424	
5911	0	34252	
5912	0	34096	
5913	0	33916	
5914	0	33876	
5915	0	34064	
5916	0	34160	
5917	0	34216	
5918	0	34308	
5919	0	34264	
5920	0	34164	
5921	0	34096	
5922	0	34100	
5923	0	34208	
5924	0	34320	
5925	0	34436	
5926	0	34364	
5927	0	34060	
5928	0	33632	
5929	0	33416	
5930	0	33300	
5931	0	33300	
5932	0	33349	
5933	0	33348	
5934	0	33316	
5935	0	33380	
5936	0	33480	
5937	0	33696	
5938	0	33780	
5939	0	33776	
5940	0	33852	
5941	0	33792	
5942	0	33600	
5943	0	33584	
5944	0	33780	
5945	0	33992	
5946	0	34068	
5947	0	34056	
5948	0	33956	
5949	0	33820	
5950	0	33724	
5951	0	33656	
5952	0	33680	
5953	0	33632	
5954	0	33500	
5955	0	33496	
5956	0	33492	
5957	0	33320	
5958	0	33144	
5959	0	33132	
5960	0	33240	
5961	0	33328	
5962	0	33316	
5963	0	33364	
5964	0	33348	
5965	0	33292	
5966	0	33328	
5967	0	33512	
5968	0	33480	
5969	0	33544	
5970	0	33792	
5971	0	33940	
5972	0	34032	
5973	0	34140	
5974	0	34100	
5975	0	33960	
5976	0	33882	
5977	0	33836	
5978	0	33780	
5979	0	33708	
5980	0	33608	
5981	0	33550	
5982	0	33480	
5983	0	33272	
5984	0	33104	
5985	0	32832	
5986	0	32612	
5987	0	32492	
5988	0	32412	
5989	0	32284	
5990	0	32176	
5991	0	32016	
5992	0	31872	
5993	0	31820	
5994	0	31816	
5995	0	31860	
5996	0	31886	
5997	0	31840	
5998	0	31776	
5999	0	31736	
6000	0	31800	
6001	0	31836	
6002	0	31836	
6003	0	31792	
6004	0	31668	
6005	0	31576	
6006	0	31448	
6007	0	31260	
6008	0	31196	
6009	0	31096	
6010	0	30980	
6011	0	30672	
6012	0	30272	
6013	0	30008	
6014	0	29700	
6015	0	29356	
6016	0	29048	
6017	0	28856	
6018	0	28688	
6019	0	28552	
6020	0	28324	
6021	0	28072	
6022	0	27862	
6023	0	27656	
6024	0	27560	
6025	0	27740	
6026	0	27972	
6027	0	28216	
6028	0	28556	
6029	0	28906	
6030	0	29352	
6031	0	29780	
6032	0	29896	
6033	0	29816	
6034	0	29772	
6035	0	29804	
6036	0	29876	
6037	0	29978	
6038	0	30040	
6039	0	30096	
6040	0	30284	
6041	0	30404	
6042	0	30524	
6043	0	30840	
6044	0	31020	
6045	0	31168	
6046	0	31348	
6047	0	31504	
6048	0	31728	
6049	0	31800	
6050	0	31924	
6051	0	32274	
6052	0	32736	
6053	0	33264	
6054	0	33800	
6055	0	34304	
6056	0	34584	
6057	0	34724	
6058	0	34736	
6059	0	34896	
6060	0	35192	
6061	0	35548	
6062	0	36044	
6063	0	36312	
6064	0	36396	
6065	0	36452	
6066	0	36360	
6067	0	36328	
6068	0	36408	
6069	0	36384	
6070	0	36364	
6071	0	36360	
6072	0	36380	
6073	0	36252	
6074	0	36072	
6075	0	36032	
6076	0	36080	
6077	0	36080	
6078	0	36252	
6079	0	36324	
6080	0	36244	
6081	0	36186	
6082	0	36048	
6083	0	35976	
6084	0	35940	
6085	0	35908	
6086	0	35836	
6087	0	35744	
6088	0	35732	
6089	0	35648	
6090	0	35596	
6091	0	35704	
6092	0	35792	
6093	0	35776	
6094	0	35804	
6095	0	35812	
6096	0	35808	
6097	0	35896	
6098	0	36048	
6099	0	36144	
6100	0	36052	
6101	0	35828	
6102	0	35604	
6103	0	35416	
6104	0	35396	
6105	0	35380	
6106	0	35432	
6107	0	35464	
6108	0	35408	
6109	0	35344	
6110	0	35292	
6111	0	35264	
6112	0	35352	
6113	0	35604	
6114	0	35744	
6115	0	35796	
6116	0	35772	
6117	0	35668	
6118	0	35556	
6119	0	35388	
6120	0	35112	
6121	0	34816	
6122	0	34452	
6123	0	33956	
6124	0	33280	
6125	0	32356	
6126	0	31160	
6127	0	29996	
6128	0	28996	
6129	0	27804	
6130	0	26336	
6131	0	24792	
6132	0	23324	
6133	0	21880	
6134	0	20300	
6135	0	18572	
6136	0	16780	
6137	0	14932	
6138	0	13108	
6139	0	11173	
6140	0	9152	
6141	0	7252	
6142	0	5392	
6143	0	4284	
6144	0	3783	
6145	0	3590	
6146	0	3540	
6147	0	3568	
6148	0	5621	
6149	0	9776	
6150	0	14693	
6151	0	19848	
6152	0	24548	
6153	0	28868	
6154	0	32836	
6155	0	36648	
6156	0	40436	
6157	0	44024	
6158	0	47064	
6159	0	49352	
6160	0	50952	
6161	0	52280	
6162	0	53608	
6163	0	54888	
6164	0	55944	
6165	0	56608	
6166	0	56848	
6167	0	56772	
6168	0	56280	
6169	0	55420	
6170	0	54360	
6171	0	53144	
6172	0	51744	
6173	0	50112	
6174	0	48164	
6175	0	46316	
6176	0	44532	
6177	0	42960	
6178	0	41700	
6179	0	40516	
6180	0	39252	
6181	0	38104	
6182	0	37216	
6183	0	36536	
6184	0	35941	
6185	0	35464	
6186	0	35088	
6187	0	34812	
6188	0	34472	
6189	0	34056	
6190	0	33716	
6191	0	33708	
6192	0	33760	
6193	0	33820	
6194	0	33744	
6195	0	33604	
6196	0	33508	
6197	0	33464	
6198	0	33508	
6199	0	33660	
6200	0	33668	
6201	0	33456	
6202	0	33256	
6203	0	33128	
6204	0	33096	
6205	0	33048	
6206	0	33104	
6207	0	33200	
6208	0	33288	
6209	0	33194	
6210	0	33041	
6211	0	33000	
6212	0	33012	
6213	0	32905	
6214	0	32740	
6215	0	32664	
6216	0	32620	
6217	0	32612	
6218	0	32644	
6219	0	32676	
6220	0	32824	
6221	0	32808	
6222	0	32704	
6223	0	32660	
6224	0	32632	
6225	0	32636	
6226	0	32528	
6227	0	32512	
6228	0	32472	
6229	0	32476	
6230	0	32684	
6231	0	32856	
6232	0	32824	
6233	0	32636	
6234	0	32424	
6235	0	32306	
6236	0	32308	
6237	0	32368	
6238	0	32464	
6239	0	32480	
6240	0	32508	
6241	0	32376	
6242	0	32180	
6243	0	32180	
6244	0	32088	
6245	0	31868	
6246	0	31780	
6247	0	31788	
6248	0	31784	
6249	0	31736	
6250	0	31680	
6251	0	31648	
6252	0	31616	
6253	0	31504	
6254	0	31424	
6255	0	31464	
6256	0	31504	
6257	0	31472	
6258	0	31476	
6259	0	31602	
6260	0	31588	
6261	0	31368	
6262	0	31232	
6263	0	31232	
6264	0	31256	
6265	0	31120	
6266	0	31036	
6267	0	31066	
6268	0	31080	
6269	0	30944	
6270	0	30816	
6271	0	30748	
6272	0	30640	
6273	0	30572	
6274	0	30432	
6275	0	30396	
6276	0	30476	
6277	0	30522	
6278	0	30496	
6279	0	30600	
6280	0	30656	
6281	0	30576	
6282	0	30436	
6283	0	30344	
6284	0	30332	
6285	0	30268	
6286	0	30120	
6287	0	29916	
6288	0	29832	
6289	0	29876	
6290	0	29848	
6291	0	29736	
6292	0	29616	
6293	0	29450	
6294	0	29424	
6295	0	29640	
6296	0	30000	
6297	0	30168	
6298	0	30098	
6299	0	30012	
6300	0	29784	
6301	0	29444	
6302	0	29178	
6303	0	29060	
6304	0	29096	
6305	0	29084	
6306	0	28988	
6307	0	28900	
6308	0	28924	
6309	0	28872	
6310	0	28868	
6311	0	28872	
6312	0	28784	
6313	0	28576	
6314	0	28532	
6315	0	28576	
6316	0	28608	
6317	0	28512	
6318	0	28544	
6319	0	28500	
6320	0	28452	
6321	0	28448	
6322	0	28408	
6323	0	28400	
6324	0	28496	
6325	0	28524	
6326	0	28440	
6327	0	28380	
6328	0	28488	
6329	0	28577	
6330	0	28432	
6331	0	28372	
6332	0	28486	
6333	0	28644	
6334	0	28738	
6335	0	28696	
6336	0	28492	
6337	0	28364	
6338	0	28354	
6339	0	28248	
6340	0	28220	
6341	0	28224	
6342	0	28304	
6343	0	28504	
6344	0	28528	
6345	0	28424	
6346	0	28324	
6347	0	28480	
6348	0	28632	
6349	0	28600	
6350	0	28702	
6351	0	28824	
6352	0	28920	
6353	0	28888	
6354	0	28616	
6355	0	28448	
6356	0	28426	
6357	0	28544	
6358	0	28652	
6359	0	28760	
6360	0	28776	
6361	0	28840	
6362	0	28954	
6363	0	29092	
6364	0	29304	
6365	0	29402	
6366	0	29388	
6367	0	29472	
6368	0	29588	
6369	0	29848	
6370	0	30124	
6371	0	30221	
6372	0	30328	
6373	0	30608	
6374	0	30824	
6375	0	31104	
6376	0	31236	
6377	0	31368	
6378	0	31486	
6379	0	31524	
6380	0	31580	
6381	0	31572	
6382	0	31744	
6383	0	32082	
6384	0	32292	
6385	0	32532	
6386	0	32720	
6387	0	33016	
6388	0	33128	
6389	0	33068	
6390	0	33068	
6391	0	33232	
6392	0	33588	
6393	0	33920	
6394	0	34104	
6395	0	34168	
6396	0	34304	
6397	0	34520	
6398	0	34716	
6399	0	35004	
6400	0	35336	
6401	0	35476	
6402	0	35540	
6403	0	35736	
6404	0	35688	
6405	0	35560	
6406	0	35588	
6407	0	35808	
6408	0	36080	
6409	0	36334	
6410	0	36432	
6411	0	36594	
6412	0	36748	
6413	0	36848	
6414	0	37004	
6415	0	37248	
6416	0	37404	
6417	0	37424	
6418	0	37344	
6419	0	37348	
6420	0	37300	
6421	0	37332	
6422	0	37416	
6423	0	37430	
6424	0	37364	
6425	0	37492	
6426	0	37640	
6427	0	37624	
6428	0	37444	
6429	0	37312	
6430	0	37328	
6431	0	37544	
6432	0	37756	
6433	0	37864	
6434	0	37844	
6435	0	37936	
6436	0	38008	
6437	0	38080	
6438	0	38080	
6439	0	38056	
6440	0	38192	
6441	0	38368	
6442	0	38616	
6443	0	38888	
6444	0	38760	
6445	0	38488	
6446	0	38440	
6447	0	38516	
6448	0	38504	
6449	0	38516	
6450	0	38440	
6451	0	38320	
6452	0	38012	
6453	0	37660	
6454	0	37512	
6455	0	37404	
6456	0	37148	
6457	0	37016	
6458	0	37004	
6459	0	37088	
6460	0	37200	
6461	0	37296	
6462	0	37352	
6463	0	37600	
6464	0	37812	
6465	0	37588	
6466	0	37284	
6467	0	37196	
6468	0	37218	
6469	0	37208	
6470	0	37176	
6471	0	37324	
6472	0	37472	
6473	0	37416	
6474	0	37332	
6475	0	37472	
6476	0	37784	
6477	0	37898	
6478	0	37856	
6479	0	37968	
6480	0	37992	
6481	0	38012	
6482	0	38048	
6483	0	37960	
6484	0	37688	
6485	0	37368	
6486	0	37148	
6487	0	36976	
6488	0	36816	
6489	0	36756	
6490	0	36600	
6491	0	36208	
6492	0	35964	
6493	0	35868	
6494	0	35988	
6495	0	36240	
6496	0	36384	
6497	0	36520	
6498	0	36876	
6499	0	37140	
6500	0	36924	
6501	0	36504	
6502	0	36176	
6503	0	35984	
6504	0	35856	
6505	0	35664	
6506	0	35448	
6507	0	35268	
6508	0	35136	
6509	0	35208	
6510	0	35552	
6511	0	35600	
6512	0	35564	
6513	0	35432	
6514	0	35260	
6515	0	34988	
6516	0	34872	
6517	0	34926	
6518	0	35028	
6519	0	35080	
6520	0	35020	
6521	0	34948	
6522	0	34844	
6523	0	34784	
6524	0	34788	
6525	0	34840	
6526	0	35010	
6527	0	34936	
6528	0	34890	
6529	0	34848	
6530	0	34856	
6531	0	34972	
6532	0	35012	
6533	0	34878	
6534	0	34792	
6535	0	34864	
6536	0	35096	
6537	0	35176	
6538	0	35084	
6539	0	35000	
6540	0	35026	
6541	0	35066	
6542	0	34996	
6543	0	34852	
6544	0	34776	
6545	0	34864	
6546	0	35140	
6547	0	35324	
6548	0	35014	
6549	0	34704	
6550	0	34556	
6551	0	34528	
6552	0	34488	
6553	0	34576	
6554	0	34548	
6555	0	34312	
6556	0	34180	
6557	0	34252	
6558	0	34440	
6559	0	34584	
6560	0	34700	
6561	0	34744	
6562	0	34825	
6563	0	34896	
6564	0	34784	
6565	0	34644	
6566	0	34592	
6567	0	34656	
6568	0	34736	
6569	0	34712	
6570	0	34460	
6571	0	34256	
6572	0	34092	
6573	0	33918	
6574	0	33764	
6575	0	33952	
6576	0	34440	
6577	0	34704	
6578	0	34792	
6579	0	34840	
6580	0	35160	
6581	0	35468	
6582	0	35368	
6583	0	35136	
6584	0	34948	
6585	0	34624	
6586	0	34312	
6587	0	34220	
6588	0	34340	
6589	0	34456	
6590	0	34488	
6591	0	34412	
6592	0	34296	
6593	0	34214	
6594	0	34128	
6595	0	34092	
6596	0	34188	
6597	0	34264	
6598	0	34442	
6599	0	34436	
6600	0	34140	
6601	0	34032	
6602	0	34040	
6603	0	34108	
6604	0	34360	
6605	0	34528	
6606	0	34468	
6607	0	34312	
6608	0	34060	
6609	0	33772	
6610	0	33572	
6611	0	33620	
6612	0	33728	
6613	0	33728	
6614	0	33728	
6615	0	33658	
6616	0	33632	
6617	0	33708	
6618	0	33752	
6619	0	33824	
6620	0	34058	
6621	0	34122	
6622	0	33828	
6623	0	33568	
6624	0	33488	
6625	0	33492	
6626	0	33448	
6627	0	33368	
6628	0	33180	
6629	0	32880	
6630	0	32680	
6631	0	32696	
6632	0	32744	
6633	0	32732	
6634	0	32692	
6635	0	32404	
6636	0	32112	
6637	0	31872	
6638	0	31732	
6639	0	31728	
6640	0	31624	
6641	0	31540	
6642	0	31544	
6643	0	31524	
6644	0	31608	
6645	0	31692	
6646	0	31700	
6647	0	31500	
6648	0	31106	
6649	0	30748	
6650	0	30612	
6651	0	30688	
6652	0	30842	
6653	0	30988	
6654	0	30752	
6655	0	30184	
6656	0	29584	
6657	0	29218	
6658	0	29070	
6659	0	28836	
6660	0	28642	
6661	0	28476	
6662	0	28272	
6663	0	28065	
6664	0	27824	
6665	0	27612	
6666	0	27492	
6667	0	27452	
6668	0	27564	
6669	0	27768	
6670	0	28052	
6671	0	28404	
6672	0	28744	
6673	0	29072	
6674	0	29312	
6675	0	29352	
6676	0	29206	
6677	0	29344	
6678	0	29704	
6679	0	30016	
6680	0	30376	
6681	0	30536	
6682	0	30496	
6683	0	30580	
6684	0	30744	
6685	0	30952	
6686	0	31208	
6687	0	31360	
6688	0	31416	
6689	0	31500	
6690	0	31808	
6691	0	32164	
6692	0	32396	
6693	0	32644	
6694	0	32964	
6695	0	33264	
6696	0	33552	
6697	0	33836	
6698	0	34232	
6699	0	34480	
6700	0	34472	
6701	0	34544	
6702	0	34680	
6703	0	34892	
6704	0	35057	
6705	0	35208	
6706	0	35464	
6707	0	35516	
6708	0	35524	
6709	0	35568	
6710	0	35600	
6711	0	35636	
6712	0	35832	
6713	0	36112	
6714	0	36312	
6715	0	36432	
6716	0	36520	
6717	0	36520	
6718	0	36460	
6719	0	36408	
6720	0	36276	
6721	0	36136	
6722	0	36228	
6723	0	36336	
6724	0	36268	
6725	0	36176	
6726	0	36204	
6727	0	36360	
6728	0	36336	
6729	0	36164	
6730	0	36080	
6731	0	36160	
6732	0	36296	
6733	0	36328	
6734	0	36368	
6735	0	36344	
6736	0	36348	
6737	0	36412	
6738	0	36368	
6739	0	36272	
6740	0	36144	
6741	0	35944	
6742	0	35744	
6743	0	35676	
6744	0	35660	
6745	0	35672	
6746	0	35824	
6747	0	35880	
6748	0	35712	
6749	0	35724	
6750	0	35872	
6751	0	36044	
6752	0	35720	
6753	0	35352	
6754	0	35200	
6755	0	35304	
6756	0	35444	
6757	0	35620	
6758	0	35884	
6759	0	36044	
6760	0	36048	
6761	0	35788	
6762	0	35576	
6763	0	35404	
6764	0	35180	
6765	0	34820	
6766	0	34416	
6767	0	33880	
6768	0	33012	
6769	0	31704	
6770	0	30192	
6771	0	28916	
6772	0	27720	
6773	0	26600	
6774	0	25269	
6775	0	23834	
6776	0	22394	
6777	0	21052	
6778	0	19628	
6779	0	18032	
6780	0	16324	
6781	0	14464	
6782	0	12418	
6783	0	10296	
6784	0	8244	
6785	0	6421	
6786	0	4714	
6787	0	3366	
6788	0	2708	
6789	0	3117	
6790	0	4476	
6791	0	6765	
6792	0	10183	
6793	0	14820	
6794	0	19796	
6795	0	24440	
6796	0	28472	
6797	0	32204	
6798	0	35812	
6799	0	39484	
6800	0	43020	
6801	0	46348	
6802	0	49096	
6803	0	50908	
6804	0	52164	
6805	0	53288	
6806	0	54400	
6807	0	55504	
6808	0	56408	
6809	0	56968	
6810	0	57324	
6811	0	57464	
6812	0	57120	
6813	0	56304	
6814	0	55208	
6815	0	53840	
6816	0	52216	
6817	0	50588	
6818	0	49008	
6819	0	47360	
6820	0	45496	
6821	0	43712	
6822	0	42312	
6823	0	41104	
6824	0	40052	
6825	0	39140	
6826	0	38280	
6827	0	37540	
6828	0	36896	
6829	0	36192	
6830	0	35584	
6831	0	35180	
6832	0	34964	
6833	0	35044	
6834	0	35172	
6835	0	34928	
6836	0	34652	
6837	0	34393	
6838	0	34200	
6839	0	34124	
6840	0	34104	
6841	0	34004	
6842	0	33856	
6843	0	33756	
6844	0	33808	
6845	0	33924	
6846	0	34020	
6847	0	33916	
6848	0	33748	
6849	0	33624	
6850	0	33404	
6851	0	33128	
6852	0	32920	
6853	0	32872	
6854	0	33156	
6855	0	33628	
6856	0	33772	
6857	0	33600	
6858	0	33348	
6859	0	33213	
6860	0	33092	
6861	0	32988	
6862	0	32876	
6863	0	32872	
6864	0	32916	
6865	0	32828	
6866	0	32796	
6867	0	32800	
6868	0	32724	
6869	0	32528	
6870	0	32317	
6871	0	32364	
6872	0	32500	
6873	0	32640	
6874	0	32900	
6875	0	33024	
6876	0	33040	
6877	0	32996	
6878	0	32900	
6879	0	32668	
6880	0	32472	
6881	0	32272	
6882	0	32180	
6883	0	32256	
6884	0	32352	
6885	0	32364	
6886	0	32400	
6887	0	32456	
6888	0	32432	
6889	0	32300	
6890	0	32224	
6891	0	32068	
6892	0	31896	
6893	0	31756	
6894	0	31736	
6895	0	31760	
6896	0	31792	
6897	0	31816	
6898	0	31768	
6899	0	31696	
6900	0	31604	
6901	0	31560	
6902	0	31488	
6903	0	31204	
6904	0	31016	
6905	0	30844	
6906	0	30724	
6907	0	30892	
6908	0	31132	
6909	0	31034	
6910	0	30940	
6911	0	31002	
6912	0	30952	
6913	0	30800	
6914	0	30548	
6915	0	30330	
6916	0	30328	
6917	0	30400	
6918	0	30416	
6919	0	30440	
6920	0	30576	
6921	0	30372	
6922	0	29984	
6923	0	29636	
6924	0	29552	
6925	0	29760	
6926	0	30024	
6927	0	30098	
6928	0	30057	
6929	0	29932	
6930	0	29908	
6931	0	29844	
6932	0	29724	
6933	0	29744	
6934	0	29906	
6935	0	29788	
6936	0	29576	
6937	0	29564	
6938	0	29388	
6939	0	29116	
6940	0	28960	
6941	0	28904	
6942	0	28744	
6943	0	28536	
6944	0	28596	
6945	0	29032	
6946	0	29212	
6947	0	28856	
6948	0	28856	
6949	0	28856	
6950	0	28672	
6951	0	28508	
6952	0	28272	
6953	0	28052	
6954	0	27957	
6955	0	28082	
6956	0	28296	
6957	0	28464	
6958	0	28600	
6959	0	28868	
6960	0	29040	
6961	0	29096	
6962	0	28832	
6963	0	28420	
6964	0	27960	
6965	0	27560	
6966	0	27128	
6967	0	27132	
6968	0	27104	
6969	0	26776	
6970	0	26604	
6971	0	26624	
6972	0	26660	
6973	0	26648	
6974	0	26468	
6975	0	26684	
6976	0	26932	
6977	0	27244	
6978	0	27372	
6979	0	27232	
6980	0	27124	
6981	0	27072	
6982	0	27068	
6983	0	27032	
6984	0	27120	
6985	0	27024	
6986	0	26696	
6987	0	26644	
6988	0	26596	
6989	0	26548	
6990	0	26308	
6991	0	26244	
6992	0	26556	
6993	0	26828	
6994	0	26960	
6995	0	26976	
6996	0	27056	
6997	0	26992	
6998	0	26936	
6999	0	26924	
7000	0	26672	
7001	0	26576	
7002	0	26800	
7003	0	26800	
7004	0	26794	
7005	0	26952	
7006	0	27306	
7007	0	27488	
7008	0	27400	
7009	0	27320	
7010	0	27288	
7011	0	27300	
7012	0	27396	
7013	0	27616	
7014	0	27824	
7015	0	27962	
7016	0	28084	
7017	0	28200	
7018	0	28224	
7019	0	28384	
7020	0	28732	
7021	0	29132	
7022	0	29468	
7023	0	29652	
7024	0	29732	
7025	0	29858	
7026	0	30038	
7027	0	30244	
7028	0	30376	
7029	0	30552	
7030	0	30768	
7031	0	30968	
7032	0	31244	
7033	0	31600	
7034	0	31888	
7035	0	32200	
7036	0	32485	
7037	0	32786	
7038	0	33008	
7039	0	33044	
7040	0	33120	
7041	0	33232	
7042	0	33280	
7043	0	33372	
7044	0	33604	
7045	0	33953	
7046	0	34344	
7047	0	34704	
7048	0	34884	
7049	0	35028	
7050	0	35136	
7051	0	35104	
7052	0	35008	
7053	0	35032	
7054	0	35244	
7055	0	35404	
7056	0	35476	
7057	0	35668	
7058	0	35852	
7059	0	36032	
7060	0	36144	
7061	0	36188	
7062	0	36212	
7063	0	36336	
7064	0	36524	
7065	0	36716	
7066	0	36728	
7067	0	36712	
7068	0	36780	
7069	0	36860	
7070	0	36896	
7071	0	36976	
7072	0	37048	
7073	0	37068	
7074	0	36964	
7075	0	37008	
7076	0	37116	
7077	0	37104	
7078	0	36972	
7079	0	36888	
7080	0	36892	
7081	0	36860	
7082	0	36776	
7083	0	36716	
7084	0	36868	
7085	0	37028	
7086	0	37100	
7087	0	37072	
7088	0	36952	
7089	0	36856	
7090	0	36824	
7091	0	36888	
7092	0	37060	
7093	0	37020	
7094	0	36916	
7095	0	36816	
7096	0	36656	
7097	0	36584	
7098	0	36612	
7099	0	36556	
7100	0	36516	
7101	0	36500	
7102	0	36480	
7103	0	36448	
7104	0	36504	
7105	0	36512	
7106	0	36516	
7107	0	36460	
7108	0	36344	
7109	0	36236	
7110	0	36140	
7111	0	36096	
7112	0	36172	
7113	0	36348	
7114	0	36464	
7115	0	36460	
7116	0	36332	
7117	0	36132	
7118	0	36052	
7119	0	36056	
7120	0	36004	
7121	0	35992	
7122	0	35920	
7123	0	35736	
7124	0	35532	
7125	0	35448	
7126	0	35388	
7127	0	35384	
7128	0	35448	
7129	0	35468	
7130	0	35504	
7131	0	35628	
7132	0	35828	
7133	0	35980	
7134	0	36064	
7135	0	36116	
7136	0	36152	
7137	0	36112	
7138	0	36032	
7139	0	35956	
7140	0	35928	
7141	0	35772	
7142	0	35516	
7143	0	35336	
7144	0	35258	
7145	0	35320	
7146	0	35516	
7147	0	35668	
7148	0	35848	
7149	0	36012	
7150	0	36120	
7151	0	36124	
7152	0	36000	
7153	0	35936	
7154	0	35932	
7155	0	35920	
7156	0	35752	
7157	0	35624	
7158	0	35556	
7159	0	35616	
7160	0	35604	
7161	0	35480	
7162	0	35384	
7163	0	35400	
7164	0	35272	
7165	0	35192	
7166	0	35128	
7167	0	35032	
7168	0	35152	
7169	0	35176	
7170	0	35124	
7171	0	35080	
7172	0	35044	
7173	0	34904	
7174	0	34792	
7175	0	34820	
7176	0	34968	
7177	0	34904	
7178	0	34760	
7179	0	34768	
7180	0	35004	
7181	0	34700	
7182	0	34472	
7183	0	34664	
7184	0	34864	
7185	0	35168	
7186	0	34896	
7187	0	34420	
7188	0	34268	
7189	0	34400	
7190	0	34616	
7191	0	34648	
7192	0	34724	
7193	0	34632	
7194	0	34356	
7195	0	34184	
7196	0	34356	
7197	0	34668	
7198	0	34608	
7199	0	34490	
7200	0	34416	
7201	0	34452	
7202	0	34400	
7203	0	34280	
7204	0	34220	
7205	0	34144	
7206	0	34124	
7207	0	34208	
7208	0	34245	
7209	0	34344	
7210	0	34368	
7211	0	34322	
7212	0	34172	
7213	0	34272	
7214	0	34684	
7215	0	34592	
7216	0	34292	
7217	0	34144	
7218	0	34032	
7219	0	33904	
7220	0	33884	
7221	0	34008	
7222	0	34176	
7223	0	34304	
7224	0	34289	
7225	0	34256	
7226	0	34172	
7227	0	34080	
7228	0	34024	
7229	0	34006	
7230	0	34000	
7231	0	33932	
7232	0	33868	
7233	0	33916	
7234	0	33980	
7235	0	34076	
7236	0	34224	
7237	0	34250	
7238	0	34368	
7239	0	34548	
7240	0	34596	
7241	0	34528	
7242	0	34416	
7243	0	34272	
7244	0	34176	
7245	0	34112	
7246	0	34064	
7247	0	34072	
7248	0	34188	
7249	0	34272	
7250	0	34240	
7251	0	34232	
7252	0	34220	
7253	0	34256	
7254	0	34236	
7255	0	34224	
7256	0	34332	
7257	0	34388	
7258	0	34372	
7259	0	34304	
7260	0	34224	
7261	0	34224	
7262	0	34224	
7263	0	34176	
7264	0	34088	
7265	0	34004	
7266	0	33936	
7267	0	33840	
7268	0	33634	
7269	0	33376	
7270	0	33232	
7271	0	33056	
7272	0	32892	
7273	0	32696	
7274	0	32416	
7275	0	32224	
7276	0	32104	
7277	0	32064	
7278	0	32040	
7279	0	32044	
7280	0	32080	
7281	0	32186	
7282	0	32180	
7283	0	32104	
7284	0	32056	
7285	0	32068	
7286	0	32160	
7287	0	32128	
7288	0	32096	
7289	0	32040	
7290	0	32016	
7291	0	31952	
7292	0	31864	
7293	0	31580	
7294	0	31268	
7295	0	31044	
7296	0	30856	
7297	0	30600	
7298	0	30312	
7299	0	30024	
7300	0	29712	
7301	0	29400	
7302	0	29120	
7303	0	28900	
7304	0	28832	
7305	0	28776	
7306	0	28592	
7307	0	28398	
7308	0	28338	
7309	0	28288	
7310	0	28320	
7311	0	28296	
7312	0	28336	
7313	0	28476	
7314	0	28628	
7315	0	28768	
7316	0	29044	
7317	0	29272	
7318	0	29452	
7319	0	29726	
7320	0	29892	
7321	0	30048	
7322	0	30256	
7323	0	30620	
7324	0	30808	
7325	0	30980	
7326	0	31108	
7327	0	31208	
7328	0	31304	
7329	0	31426	
7330	0	31416	
7331	0	31452	
7332	0	31632	
7333	0	31836	
7334	0	32068	
7335	0	32376	
7336	0	32608	
7337	0	32896	
7338	0	33272	
7339	0	33644	
7340	0	33968	
7341	0	34344	
7342	0	34548	
7343	0	34732	
7344	0	34976	
7345	0	35200	
7346	0	35308	
7347	0	35268	
7348	0	35220	
7349	0	35268	
7350	0	35372	
7351	0	35489	
7352	0	35476	
7353	0	35444	
7354	0	35488	
7355	0	35528	
7356	0	35628	
7357	0	35760	
7358	0	35820	
7359	0	35768	
7360	0	35672	
7361	0	35584	
7362	0	35604	
7363	0	35600	
7364	0	35472	
7365	0	35396	
7366	0	35448	
7367	0	35536	
7368	0	35524	
7369	0	35428	
7370	0	35360	
7371	0	35340	
7372	0	35342	
7373	0	35376	
7374	0	35360	
7375	0	35304	
7376	0	35300	
7377	0	35416	
7378	0	35468	
7379	0	35452	
7380	0	35372	
7381	0	35272	
7382	0	35108	
7383	0	34968	
7384	0	34952	
7385	0	34968	
7386	0	34944	
7387	0	35004	
7388	0	35000	
7389	0	34976	
7390	0	35044	
7391	0	35112	
7392	0	35016	
7393	0	34840	
7394	0	34740	
7395	0	34656	
7396	0	34612	
7397	0	34642	
7398	0	34676	
7399	0	34608	
7400	0	34544	
7401	0	34548	
7402	0	34588	
7403	0	34576	
7404	0	34560	
7405	0	34512	
7406	0	34308	
7407	0	33944	
7408	0	33600	
7409	0	33184	
7410	0	32596	
7411	0	31524	
7412	0	30412	
7413	0	29288	
7414	0	28134	
7415	0	26920	
7416	0	25680	
7417	0	24280	
7418	0	22812	
7419	0	21442	
7420	0	20044	
7421	0	18288	
7422	0	16419	
7423	0	14490	
7424	0	12400	
7425	0	10266	
7426	0	8124	
7427	0	6048	
7428	0	4165	
7429	0	2884	
7430	0	2303	
7431	0	2063	
7432	0	2001	
7433	0	2025	
7434	0	2093	
7435	0	5658	
7436	0	10765	
7437	0	16072	
7438	0	20880	
7439	0	25224	
7440	0	29220	
7441	0	33042	
7442	0	36960	
7443	0	40912	
7444	0	44592	
7445	0	47764	
7446	0	50224	
7447	0	52096	
7448	0	53624	
7449	0	54944	
7450	0	55952	
7451	0	56640	
7452	0	56944	
7453	0	56992	
7454	0	56812	
7455	0	56352	
7456	0	55624	
7457	0	54592	
7458	0	53272	
7459	0	51588	
7460	0	49504	
7461	0	47416	
7462	0	45476	
7463	0	43744	
7464	0	42168	
7465	0	40844	
7466	0	39732	
7467	0	38812	
7468	0	37984	
7469	0	37184	
7470	0	36380	
7471	0	35760	
7472	0	35188	
7473	0	34730	
7474	0	34336	
7475	0	33964	
7476	0	33620	
7477	0	33444	
7478	0	33308	
7479	0	33292	
7480	0	33320	
7481	0	33308	
7482	0	33285	
7483	0	33300	
7484	0	33336	
7485	0	33428	
7486	0	33584	
7487	0	33652	
7488	0	33708	
7489	0	33692	
7490	0	33604	
7491	0	33616	
7492	0	33548	
7493	0	33360	
7494	0	33184	
7495	0	33016	
7496	0	32896	
7497	0	32872	
7498	0	32917	
7499	0	32992	
7500	0	33032	
7501	0	32976	
7502	0	32920	
7503	0	32964	
7504	0	33040	
7505	0	32976	
7506	0	32826	
7507	0	32657	
7508	0	32544	
7509	0	32444	
7510	0	32304	
7511	0	32196	
7512	0	32144	
7513	0	32048	
7514	0	32056	
7515	0	32180	
7516	0	32280	
7517	0	32288	
7518	0	32312	
7519	0	32272	
7520	0	32244	
7521	0	32148	
7522	0	31944	
7523	0	31712	
7524	0	31482	
7525	0	31296	
7526	0	31216	
7527	0	31214	
7528	0	31300	
7529	0	31436	
7530	0	31580	
7531	0	31744	
7532	0	31752	
7533	0	31620	
7534	0	31536	
7535	0	31396	
7536	0	31292	
7537	0	31138	
7538	0	31040	
7539	0	31068	
7540	0	31128	
7541	0	31048	
7542	0	31012	
7543	0	31044	
7544	0	30928	
7545	0	30680	
7546	0	30464	
7547	0	30456	
7548	0	30560	
7549	0	30752	
7550	0	30836	
7551	0	30672	
7552	0	30558	
7553	0	30434	
7554	0	30300	
7555	0	30216	
7556	0	30116	
7557	0	30032	
7558	0	29968	
7559	0	29976	
7560	0	29908	
7561	0	29772	
7562	0	29608	
7563	0	29536	
7564	0	29544	
7565	0	29624	
7566	0	29652	
7567	0	29692	
7568	0	29848	
7569	0	29988	
7570	0	30052	
7571	0	30096	
7572	0	30088	
7573	0	30088	
7574	0	29996	
7575	0	29800	
7576	0	29444	
7577	0	29120	
7578	0	29032	
7579	0	29000	
7580	0	28876	
7581	0	28760	
7582	0	28620	
7583	0	28504	
7584	0	28472	
7585	0	28380	
7586	0	28442	
7587	0	28588	
7588	0	28640	
7589	0	28604	
7590	0	28396	
7591	0	28344	
7592	0	28293	
7593	0	28156	
7594	0	27932	
7595	0	27814	
7596	0	27844	
7597	0	27964	
7598	0	28036	
7599	0	27928	
7600	0	27780	
7601	0	27608	
7602	0	27460	
7603	0	27384	
7604	0	27386	
7605	0	27352	
7606	0	27328	
7607	0	27320	
7608	0	27312	
7609	0	27404	
7610	0	27472	
7611	0	27428	
7612	0	27432	
7613	0	27465	
7614	0	27536	
7615	0	27484	
7616	0	27416	
7617	0	27408	
7618	0	27456	
7619	0	27412	
7620	0	27356	
7621	0	27418	
7622	0	27500	
7623	0	27524	
7624	0	27416	
7625	0	27304	
7626	0	27176	
7627	0	27080	
7628	0	27108	
7629	0	27210	
7630	0	27344	
7631	0	27440	
7632	0	27380	
7633	0	27364	
7634	0	27328	
7635	0	27264	
7636	0	27196	
7637	0	27300	
7638	0	27513	
7639	0	27632	
7640	0	27648	
7641	0	27872	
7642	0	28036	
7643	0	28040	
7644	0	27966	
7645	0	27806	
7646	0	27540	
7647	0	27309	
7648	0	27268	
7649	0	27268	
7650	0	27320	
7651	0	27384	
7652	0	27512	
7653	0	27652	
7654	0	27808	
7655	0	28016	
7656	0	28256	
7657	0	28524	
7658	0	28872	
7659	0	29088	
7660	0	29266	
7661	0	29496	
7662	0	29692	
7663	0	29776	
7664	0	29800	
7665	0	29888	
7666	0	30016	
7667	0	30256	
7668	0	30508	
7669	0	30788	
7670	0	31096	
7671	0	31352	
7672	0	31664	
7673	0	31964	
7674	0	32112	
7675	0	32256	
7676	0	32436	
7677	0	32600	
7678	0	32720	
7679	0	32928	
7680	0	33198	
7681	0	33392	
7682	0	33524	
7683	0	33716	
7684	0	33952	
7685	0	34220	
7686	0	34416	
7687	0	34512	
7688	0	34624	
7689	0	34768	
7690	0	34804	
7691	0	34880	
7692	0	35048	
7693	0	35128	
7694	0	35208	
7695	0	35400	
7696	0	35672	
7697	0	35904	
7698	0	35956	
7699	0	35992	
7700	0	36008	
7701	0	35944	
7702	0	35924	
7703	0	36090	
7704	0	36268	
7705	0	36420	
7706	0	36504	
7707	0	36512	
7708	0	36580	
7709	0	36752	
7710	0	36852	
7711	0	36848	
7712	0	36696	
7713	0	36528	
7714	0	36372	
7715	0	36184	
7716	0	36192	
7717	0	36324	
7718	0	36456	
7719	0	36520	
7720	0	36508	
7721	0	36456	
7722	0	36488	
7723	0	36508	
7724	0	36432	
7725	0	36368	
7726	0	36216	
7727	0	36076	
7728	0	36026	
7729	0	36060	
7730	0	36200	
7731	0	36260	
7732	0	36348	
7733	0	36416	
7734	0	36424	
7735	0	36368	
7736	0	36316	
7737	0	36272	
7738	0	36068	
7739	0	35872	
7740	0	35744	
7741	0	35760	
7742	0	35868	
7743	0	36024	
7744	0	36233	
7745	0	36364	
7746	0	36316	
7747	0	36220	
7748	0	36112	
7749	0	36060	
7750	0	36088	
7751	0	36088	
7752	0	36064	
7753	0	35944	
7754	0	35760	
7755	0	35496	
7756	0	35360	
7757	0	35344	
7758	0	35364	
7759	0	35352	
7760	0	35336	
7761	0	35332	
7762	0	35328	
7763	0	35336	
7764	0	35456	
7765	0	35532	
7766	0	35512	
7767	0	35416	
7768	0	35272	
7769	0	35236	
7770	0	35308	
7771	0	35376	
7772	0	35428	
7773	0	35456	
7774	0	35416	
7775	0	35316	
7776	0	35260	
7777	0	35220	
7778	0	35168	
7779	0	35160	
7780	0	35240	
7781	0	35356	
7782	0	35356	
7783	0	35312	
7784	0	35248	
7785	0	35208	
7786	0	35128	
7787	0	35004	
7788	0	34944	
7789	0	34868	
7790	0	34688	
7791	0	34520	
7792	0	34536	
7793	0	34696	
7794	0	34616	
7795	0	34368	
7796	0	34196	
7797	0	34176	
7798	0	34304	
7799	0	34576	
7800	0	34784	
7801	0	34800	
7802	0	34828	
7803	0	34864	
7804	0	34824	
7805	0	34688	
7806	0	34530	
7807	0	34408	
7808	0	34420	
7809	0	34408	
7810	0	34448	
7811	0	34404	
7812	0	34228	
7813	0	34074	
7814	0	34044	
7815	0	34104	
7816	0	34104	
7817	0	34128	
7818	0	34148	
7819	0	34064	
7820	0	34000	
7821	0	33980	
7822	0	33936	
7823	0	33908	
7824	0	33896	
7825	0	33884	
7826	0	33904	
7827	0	33938	
7828	0	33944	
7829	0	33964	
7830	0	34084	
7831	0	34136	
7832	0	34148	
7833	0	34248	
7834	0	34248	
7835	0	34080	
7836	0	33824	
7837	0	33656	
7838	0	33668	
7839	0	33824	
7840	0	34000	
7841	0	34168	
7842	0	34180	
7843	0	34152	
7844	0	34196	
7845	0	34268	
7846	0	34284	
7847	0	34244	
7848	0	34280	
7849	0	34232	
7850	0	34104	
7851	0	33964	
7852	0	33872	
7853	0	33720	
7854	0	33596	
7855	0	33504	
7856	0	33432	
7857	0	33408	
7858	0	33416	
7859	0	33420	
7860	0	33436	
7861	0	33544	
7862	0	33688	
7863	0	33796	
7864	0	33812	
7865	0	33752	
7866	0	33724	
7867	0	33624	
7868	0	33538	
7869	0	33556	
7870	0	33600	
7871	0	33562	
7872	0	33504	
7873	0	33448	
7874	0	33390	
7875	0	33436	
7876	0	33528	
7877	0	33688	
7878	0	33912	
7879	0	34064	
7880	0	34074	
7881	0	34016	
7882	0	33956	
7883	0	33960	
7884	0	34076	
7885	0	34120	
7886	0	33960	
7887	0	33824	
7888	0	33728	
7889	0	33688	
7890	0	33696	
7891	0	33752	
7892	0	33804	
7893	0	33752	
7894	0	33704	
7895	0	33676	
7896	0	33668	
7897	0	33668	
7898	0	33800	
7899	0	33884	
7900	0	33892	
7901	0	33840	
7902	0	33756	
7903	0	33700	
7904	0	33688	
7905	0	33722	
7906	0	33768	
7907	0	33752	
7908	0	33672	
7909	0	33568	
7910	0	33505	
7911	0	33542	
7912	0	33516	
7913	0	33464	
7914	0	33336	
7915	0	33148	
7916	0	33084	
7917	0	33244	
7918	0	33420	
7919	0	33580	
7920	0	33760	
7921	0	33820	
7922	0	33820	
7923	0	33824	
7924	0	33844	
7925	0	33964	
7926	0	34020	
7927	0	33976	
7928	0	33936	
7929	0	33872	
7930	0	33784	
7931	0	33800	
7932	0	33856	
7933	0	33940	
7934	0	34004	
7935	0	34014	
7936	0	33920	
7937	0	33700	
7938	0	33516	
7939	0	33492	
7940	0	33432	
7941	0	33320	
7942	0	33161	
7943	0	32884	
7944	0	32732	
7945	0	32688	
7946	0	32500	
7947	0	32304	
7948	0	32244	
7949	0	32124	
7950	0	32100	
7951	0	32152	
7952	0	32184	
7953	0	32096	
7954	0	32020	
7955	0	32020	
7956	0	32020	
7957	0	31960	
7958	0	31908	
7959	0	31892	
7960	0	31816	
7961	0	31692	
7962	0	31616	
7963	0	31490	
7964	0	31356	
7965	0	31180	
7966	0	30996	
7967	0	30772	
7968	0	30506	
7969	0	30192	
7970	0	29880	
7971	0	29580	
7972	0	29284	
7973	0	29048	
7974	0	28932	
7975	0	28716	
7976	0	28340	
7977	0	27888	
7978	0	27472	
7979	0	27288	
7980	0	27312	
7981	0	27492	
7982	0	27800	
7983	0	28124	
7984	0	28372	
7985	0	28552	
7986	0	28780	
7987	0	29012	
7988	0	29240	
7989	0	29562	
7990	0	29760	
7991	0	29860	
7992	0	29914	
7993	0	29944	
7994	0	29976	
7995	0	30124	
7996	0	30364	
7997	0	30584	
7998	0	30696	
7999	0	30824	
8000	0	31025	
8001	0	31184	
8002	0	31272	
8003	0	31460	
8004	0	31656	
8005	0	31836	
8006	0	32060	
8007	0	32284	
8008	0	32432	
8009	0	32636	
8010	0	32904	
8011	0	33272	
8012	0	33592	
8013	0	33864	
8014	0	34100	
8015	0	34404	
8016	0	34728	
8017	0	34916	
8018	0	35000	
8019	0	35088	
8020	0	35244	
8021	0	35480	
8022	0	35648	
8023	0	35728	
8024	0	35720	
8025	0	35712	
8026	0	35724	
8027	0	35652	
8028	0	35640	
