# OpenSignals Text File Format. Version 1
# {"00:07:80:0F:2F:DA": {"position": 0, "device": "biosignalsplux", "device name": "00:07:80:0F:2F:DA", "device connection": "BTH00:07:80:0F:2F:DA", "sampling rate": 1000, "resolution": [16], "firmware version": 776, "comments": "", "keywords": "", "mode": 0, "sync interval": 2, "date": "2023-5-16", "time": "9:20:48.331", "channels": [1], "sensor": ["ECG"], "label": ["CH1"], "column": ["nSeq", "DI", "CH1"], "special": [{"SpO2": [80, 40, 5, 4, 3, 3]}, {"SpO2": [80, 40, 5, 4, 3, 3]}, {"SpO2": [80, 40, 5, 4, 3, 3]}, {"SpO2": [80, 40, 5, 4, 3, 3]}, {"SpO2": [80, 40, 5, 4, 3, 3]}, {"SpO2": [80, 40, 5, 4, 3, 3]}, {"SpO2": [80, 40, 5, 4, 3, 3]}, {"SpO2": [80, 40, 5, 4, 3, 3]}], "digital IO": [0, 1], "sleeve color": ["red"]}}
# EndOfHeader
0	0	35660	
1	0	35732	
2	0	35720	
3	0	35668	
4	0	35660	
5	0	35648	
6	0	35532	
7	0	35560	
8	0	35680	
9	0	35744	
10	0	35680	
11	0	35548	
12	0	35504	
13	0	35438	
14	0	35396	
15	0	35504	
16	0	35600	
17	0	35624	
18	0	35568	
19	0	35528	
20	0	35484	
21	0	35328	
22	0	35176	
23	0	35072	
24	0	35002	
25	0	34920	
26	0	34956	
27	0	35088	
28	0	35324	
29	0	35544	
30	0	35588	
31	0	35648	
32	0	35616	
33	0	35556	
34	0	35520	
35	0	35464	
36	0	35300	
37	0	35072	
38	0	34848	
39	0	34752	
40	0	34736	
41	0	34680	
42	0	34588	
43	0	34492	
44	0	34426	
45	0	34356	
46	0	34276	
47	0	34208	
48	0	34170	
49	0	34192	
50	0	34188	
51	0	34304	
52	0	34444	
53	0	34456	
54	0	34240	
55	0	34116	
56	0	33988	
57	0	33988	
58	0	34064	
59	0	34276	
60	0	34444	
61	0	34420	
62	0	34408	
63	0	34456	
64	0	34406	
65	0	34252	
66	0	34252	
67	0	34208	
68	0	34104	
69	0	34056	
70	0	34068	
71	0	34114	
72	0	34100	
73	0	34072	
74	0	33988	
75	0	33861	
76	0	33800	
77	0	33908	
78	0	34056	
79	0	34096	
80	0	34184	
81	0	34304	
82	0	34272	
83	0	34188	
84	0	34096	
85	0	33928	
86	0	33752	
87	0	33688	
88	0	33604	
89	0	33464	
90	0	33428	
91	0	33348	
92	0	33328	
93	0	33388	
94	0	33480	
95	0	33504	
96	0	33392	
97	0	33340	
98	0	33308	
99	0	33292	
100	0	33264	
101	0	33208	
102	0	33072	
103	0	32896	
104	0	32688	
105	0	32560	
106	0	32560	
107	0	32600	
108	0	32564	
109	0	32536	
110	0	32532	
111	0	32604	
112	0	32764	
113	0	32936	
114	0	33020	
115	0	33080	
116	0	33058	
117	0	33008	
118	0	32908	
119	0	32804	
120	0	32912	
121	0	33248	
122	0	33472	
123	0	33672	
124	0	33844	
125	0	33861	
126	0	33661	
127	0	33416	
128	0	33260	
129	0	33164	
130	0	33096	
131	0	33052	
132	0	33008	
133	0	33064	
134	0	33028	
135	0	32932	
136	0	32744	
137	0	32464	
138	0	32200	
139	0	32020	
140	0	31960	
141	0	32012	
142	0	32104	
143	0	32120	
144	0	32064	
145	0	32008	
146	0	32020	
147	0	32076	
148	0	32132	
149	0	32232	
150	0	32432	
151	0	32556	
152	0	32624	
153	0	32752	
154	0	32792	
155	0	32824	
156	0	32848	
157	0	32788	
158	0	32780	
159	0	32788	
160	0	32821	
161	0	32840	
162	0	32818	
163	0	32848	
164	0	32853	
165	0	32776	
166	0	32684	
167	0	32572	
168	0	32488	
169	0	32464	
170	0	32436	
171	0	32404	
172	0	32300	
173	0	32236	
174	0	32265	
175	0	32288	
176	0	32224	
177	0	32088	
178	0	31964	
179	0	31836	
180	0	31716	
181	0	31580	
182	0	31472	
183	0	31392	
184	0	31400	
185	0	31546	
186	0	31720	
187	0	31862	
188	0	31912	
189	0	31856	
190	0	31884	
191	0	31968	
192	0	32084	
193	0	32240	
194	0	32280	
195	0	32176	
196	0	32048	
197	0	31944	
198	0	31896	
199	0	31852	
200	0	31832	
201	0	31804	
202	0	31728	
203	0	31592	
204	0	31564	
205	0	31572	
206	0	31636	
207	0	31784	
208	0	31864	
209	0	31880	
210	0	31838	
211	0	31788	
212	0	31764	
213	0	31808	
214	0	31852	
215	0	31845	
216	0	31840	
217	0	31832	
218	0	31812	
219	0	31668	
220	0	31614	
221	0	31588	
222	0	31552	
223	0	31536	
224	0	31540	
225	0	31564	
226	0	31516	
227	0	31376	
228	0	31096	
229	0	30800	
230	0	30560	
231	0	30336	
232	0	30144	
233	0	30012	
234	0	29936	
235	0	29816	
236	0	29596	
237	0	29368	
238	0	29220	
239	0	29064	
240	0	28852	
241	0	28708	
242	0	28645	
243	0	28632	
244	0	28552	
245	0	28408	
246	0	28232	
247	0	28085	
248	0	28096	
249	0	28104	
250	0	28072	
251	0	28020	
252	0	27860	
253	0	27678	
254	0	27620	
255	0	27584	
256	0	27604	
257	0	27540	
258	0	27388	
259	0	27112	
260	0	26720	
261	0	26344	
262	0	26068	
263	0	25872	
264	0	25760	
265	0	25692	
266	0	25664	
267	0	25573	
268	0	25352	
269	0	25164	
270	0	25057	
271	0	25010	
272	0	25056	
273	0	25258	
274	0	25540	
275	0	25920	
276	0	26306	
277	0	26708	
278	0	27137	
279	0	27500	
280	0	27852	
281	0	28084	
282	0	28292	
283	0	28504	
284	0	28600	
285	0	28576	
286	0	28608	
287	0	28704	
288	0	28800	
289	0	28888	
290	0	29004	
291	0	29168	
292	0	29405	
293	0	29604	
294	0	29680	
295	0	29672	
296	0	29724	
297	0	29804	
298	0	29780	
299	0	29736	
300	0	29812	
301	0	29980	
302	0	30184	
303	0	30296	
304	0	30344	
305	0	30408	
306	0	30493	
307	0	30584	
308	0	30684	
309	0	30796	
310	0	30954	
311	0	31068	
312	0	31208	
313	0	31376	
314	0	31450	
315	0	31476	
316	0	31426	
317	0	31388	
318	0	31476	
319	0	31516	
320	0	31544	
321	0	31488	
322	0	31352	
323	0	31220	
324	0	31124	
325	0	31018	
326	0	30916	
327	0	30868	
328	0	30928	
329	0	31056	
330	0	31164	
331	0	31208	
332	0	31252	
333	0	31234	
334	0	31236	
335	0	31292	
336	0	31324	
337	0	31296	
338	0	31252	
339	0	31212	
340	0	31124	
341	0	31024	
342	0	30920	
343	0	30792	
344	0	30688	
345	0	30540	
346	0	30392	
347	0	30368	
348	0	30364	
349	0	30316	
350	0	30272	
351	0	30312	
352	0	30356	
353	0	30332	
354	0	30282	
355	0	30260	
356	0	30248	
357	0	30268	
358	0	30360	
359	0	30554	
360	0	30708	
361	0	30768	
362	0	30818	
363	0	30940	
364	0	31020	
365	0	31028	
366	0	30932	
367	0	30880	
368	0	30724	
369	0	30444	
370	0	29944	
371	0	29188	
372	0	28448	
373	0	27656	
374	0	26624	
375	0	25472	
376	0	24112	
377	0	22600	
378	0	21010	
379	0	19312	
380	0	17548	
381	0	15726	
382	0	13725	
383	0	11528	
384	0	9270	
385	0	7040	
386	0	4857	
387	0	2708	
388	0	609	
389	0	16	
390	0	15	
391	0	15	
392	0	15	
393	0	1947	
394	0	5056	
395	0	9224	
396	0	13932	
397	0	18224	
398	0	21904	
399	0	25124	
400	0	28036	
401	0	30904	
402	0	33816	
403	0	36764	
404	0	39412	
405	0	41412	
406	0	42996	
407	0	44556	
408	0	46040	
409	0	47280	
410	0	48180	
411	0	48592	
412	0	48632	
413	0	48456	
414	0	48100	
415	0	47520	
416	0	46688	
417	0	45480	
418	0	43948	
419	0	42204	
420	0	40384	
421	0	38664	
422	0	37180	
423	0	36000	
424	0	35040	
425	0	34210	
426	0	33440	
427	0	32752	
428	0	32220	
429	0	31728	
430	0	31316	
431	0	30988	
432	0	30644	
433	0	30260	
434	0	29908	
435	0	29624	
436	0	29352	
437	0	29184	
438	0	29132	
439	0	29016	
440	0	28872	
441	0	28796	
442	0	28708	
443	0	28716	
444	0	28716	
445	0	28564	
446	0	28556	
447	0	28624	
448	0	28636	
449	0	28740	
450	0	28816	
451	0	28792	
452	0	28724	
453	0	28600	
454	0	28420	
455	0	28278	
456	0	28168	
457	0	28060	
458	0	28028	
459	0	28072	
460	0	28076	
461	0	28056	
462	0	28028	
463	0	27940	
464	0	27832	
465	0	27738	
466	0	27680	
467	0	27656	
468	0	27624	
469	0	27568	
470	0	27588	
471	0	27636	
472	0	27648	
473	0	27632	
474	0	27618	
475	0	27584	
476	0	27512	
477	0	27422	
478	0	27362	
479	0	27348	
480	0	27328	
481	0	27284	
482	0	27280	
483	0	27272	
484	0	27256	
485	0	27228	
486	0	27264	
487	0	27204	
488	0	27104	
489	0	27048	
490	0	27048	
491	0	27100	
492	0	27156	
493	0	27148	
494	0	27104	
495	0	26960	
496	0	26760	
497	0	26540	
498	0	26396	
499	0	26320	
500	0	26292	
501	0	26336	
502	0	26328	
503	0	26280	
504	0	26241	
505	0	26174	
506	0	26101	
507	0	26056	
508	0	26068	
509	0	26070	
510	0	26056	
511	0	26000	
512	0	25892	
513	0	25732	
514	0	25664	
515	0	25796	
516	0	25960	
517	0	25944	
518	0	25840	
519	0	25728	
520	0	25574	
521	0	25418	
522	0	25336	
523	0	25392	
524	0	25532	
525	0	25624	
526	0	25669	
527	0	25700	
528	0	25700	
529	0	25636	
530	0	25505	
531	0	25436	
532	0	25393	
533	0	25352	
534	0	25300	
535	0	25288	
536	0	25242	
537	0	25204	
538	0	25200	
539	0	25244	
540	0	25246	
541	0	25254	
542	0	25340	
543	0	25368	
544	0	25301	
545	0	25294	
546	0	25272	
547	0	25288	
548	0	25328	
549	0	25344	
550	0	25408	
551	0	25488	
552	0	25484	
553	0	25472	
554	0	25508	
555	0	25624	
556	0	25700	
557	0	25664	
558	0	25556	
559	0	25492	
560	0	25404	
561	0	25344	
562	0	25302	
563	0	25256	
564	0	25226	
565	0	25192	
566	0	25164	
567	0	25180	
568	0	25224	
569	0	25260	
570	0	25260	
571	0	25248	
572	0	25272	
573	0	25224	
574	0	25228	
575	0	25184	
576	0	25184	
577	0	25264	
578	0	25348	
579	0	25404	
580	0	25480	
581	0	25538	
582	0	25656	
583	0	25784	
584	0	25853	
585	0	25876	
586	0	25900	
587	0	25912	
588	0	25948	
589	0	26010	
590	0	26016	
591	0	26028	
592	0	26052	
593	0	26084	
594	0	26140	
595	0	26152	
596	0	26108	
597	0	26040	
598	0	26030	
599	0	26052	
600	0	26044	
601	0	26000	
602	0	25940	
603	0	25832	
604	0	25776	
605	0	25628	
606	0	25496	
607	0	25396	
608	0	25364	
609	0	25312	
610	0	25208	
611	0	25172	
612	0	25168	
613	0	25096	
614	0	25040	
615	0	24960	
616	0	24936	
617	0	24968	
618	0	24976	
619	0	25065	
620	0	25188	
621	0	25264	
622	0	25242	
623	0	25164	
624	0	25124	
625	0	25109	
626	0	25104	
627	0	25068	
628	0	25120	
629	0	25216	
630	0	25252	
631	0	25188	
632	0	25160	
633	0	25240	
634	0	25328	
635	0	25388	
636	0	25448	
637	0	25624	
638	0	25832	
639	0	25988	
640	0	26064	
641	0	26076	
642	0	26084	
643	0	26160	
644	0	26152	
645	0	26112	
646	0	26108	
647	0	26104	
648	0	26080	
649	0	26058	
650	0	26061	
651	0	26124	
652	0	26252	
653	0	26504	
654	0	26716	
655	0	26776	
656	0	26900	
657	0	27024	
658	0	27140	
659	0	27204	
660	0	27124	
661	0	27108	
662	0	27120	
663	0	27152	
664	0	27264	
665	0	27364	
666	0	27394	
667	0	27356	
668	0	27288	
669	0	27200	
670	0	27084	
671	0	27056	
672	0	27100	
673	0	27136	
674	0	27288	
675	0	27512	
676	0	27712	
677	0	27912	
678	0	28024	
679	0	28004	
680	0	27918	
681	0	27996	
682	0	28144	
683	0	28220	
684	0	28224	
685	0	28192	
686	0	28156	
687	0	28128	
688	0	28164	
689	0	28228	
690	0	28220	
691	0	28078	
692	0	27908	
693	0	27780	
694	0	27733	
695	0	27720	
696	0	27704	
697	0	27682	
698	0	27636	
699	0	27608	
700	0	27561	
701	0	27556	
702	0	27572	
703	0	27604	
704	0	27708	
705	0	27788	
706	0	27768	
707	0	27741	
708	0	27756	
709	0	27836	
710	0	27896	
711	0	27948	
712	0	28000	
713	0	27908	
714	0	27844	
715	0	27852	
716	0	27904	
717	0	27904	
718	0	27896	
719	0	27912	
720	0	27938	
721	0	27896	
722	0	27822	
723	0	27832	
724	0	27868	
725	0	27812	
726	0	27724	
727	0	27640	
728	0	27604	
729	0	27592	
730	0	27638	
731	0	27700	
732	0	27724	
733	0	27704	
734	0	27696	
735	0	27800	
736	0	27920	
737	0	27932	
738	0	27872	
739	0	27880	
740	0	27858	
741	0	27804	
742	0	27820	
743	0	27808	
744	0	27744	
745	0	27700	
746	0	27704	
747	0	27698	
748	0	27690	
749	0	27664	
750	0	27616	
751	0	27624	
752	0	27660	
753	0	27668	
754	0	27716	
755	0	27824	
756	0	27860	
757	0	27864	
758	0	27888	
759	0	27896	
760	0	27952	
761	0	28033	
762	0	28154	
763	0	28192	
764	0	28088	
765	0	28000	
766	0	28020	
767	0	28096	
768	0	28208	
769	0	28248	
770	0	28328	
771	0	28368	
772	0	28408	
773	0	28428	
774	0	28456	
775	0	28520	
776	0	28524	
777	0	28556	
778	0	28564	
779	0	28508	
780	0	28444	
781	0	28352	
782	0	28312	
783	0	28340	
784	0	28368	
785	0	28388	
786	0	28328	
787	0	28188	
788	0	28104	
789	0	28112	
790	0	28112	
791	0	28128	
792	0	28248	
793	0	28360	
794	0	28352	
795	0	28328	
796	0	28310	
797	0	28306	
798	0	28348	
799	0	28412	
800	0	28448	
801	0	28556	
802	0	28688	
803	0	28728	
804	0	28764	
805	0	28788	
806	0	28832	
807	0	28816	
808	0	28764	
809	0	28766	
810	0	28776	
811	0	28792	
812	0	28840	
813	0	28868	
814	0	28864	
815	0	28820	
816	0	28768	
817	0	28816	
818	0	28912	
819	0	28948	
820	0	28904	
821	0	28912	
822	0	28937	
823	0	28992	
824	0	28996	
825	0	29016	
826	0	29120	
827	0	29240	
828	0	29328	
829	0	29320	
830	0	29253	
831	0	29136	
832	0	28980	
833	0	28932	
834	0	29044	
835	0	29100	
836	0	29098	
837	0	29124	
838	0	29148	
839	0	29152	
840	0	29204	
841	0	29280	
842	0	29292	
843	0	29248	
844	0	29252	
845	0	29332	
846	0	29416	
847	0	29484	
848	0	29520	
849	0	29476	
850	0	29344	
851	0	29204	
852	0	29156	
853	0	29184	
854	0	29272	
855	0	29272	
856	0	29205	
857	0	29148	
858	0	29146	
859	0	29164	
860	0	29220	
861	0	29314	
862	0	29400	
863	0	29404	
864	0	29450	
865	0	29564	
866	0	29676	
867	0	29724	
868	0	29736	
869	0	29796	
870	0	29892	
871	0	30004	
872	0	30104	
873	0	30118	
874	0	30064	
875	0	30008	
876	0	29944	
877	0	29896	
878	0	29856	
879	0	29884	
880	0	29908	
881	0	29908	
882	0	29920	
883	0	29884	
884	0	29892	
885	0	29888	
886	0	29796	
887	0	29728	
888	0	29688	
889	0	29612	
890	0	29572	
891	0	29536	
892	0	29488	
893	0	29440	
894	0	29408	
895	0	29340	
896	0	29284	
897	0	29256	
898	0	29208	
899	0	29176	
900	0	29188	
901	0	29200	
902	0	29196	
903	0	29208	
904	0	29104	
905	0	28972	
906	0	28748	
907	0	28464	
908	0	28148	
909	0	27868	
910	0	27652	
911	0	27496	
912	0	27400	
913	0	27358	
914	0	27252	
915	0	27072	
916	0	26980	
917	0	26960	
918	0	26960	
919	0	26982	
920	0	26906	
921	0	26788	
922	0	26672	
923	0	26672	
924	0	26696	
925	0	26730	
926	0	26768	
927	0	26738	
928	0	26760	
929	0	26800	
930	0	26820	
931	0	26804	
932	0	26748	
933	0	26700	
934	0	26654	
935	0	26508	
936	0	26284	
937	0	25972	
938	0	25636	
939	0	25380	
940	0	25232	
941	0	25016	
942	0	24866	
943	0	24894	
944	0	24952	
945	0	24878	
946	0	24736	
947	0	24696	
948	0	24772	
949	0	24884	
950	0	25092	
951	0	25444	
952	0	25820	
953	0	26180	
954	0	26532	
955	0	26932	
956	0	27328	
957	0	27708	
958	0	28052	
959	0	28328	
960	0	28544	
961	0	28686	
962	0	28868	
963	0	28984	
964	0	29084	
965	0	29192	
966	0	29284	
967	0	29364	
968	0	29368	
969	0	29424	
970	0	29508	
971	0	29568	
972	0	29626	
973	0	29760	
974	0	29814	
975	0	29800	
976	0	29796	
977	0	29800	
978	0	29864	
979	0	30000	
980	0	30136	
981	0	30268	
982	0	30388	
983	0	30568	
984	0	30760	
985	0	30976	
986	0	31152	
987	0	31316	
988	0	31476	
989	0	31564	
990	0	31672	
991	0	31792	
992	0	31940	
993	0	32008	
994	0	32024	
995	0	32154	
996	0	32280	
997	0	32264	
998	0	32092	
999	0	31896	
1000	0	31788	
1001	0	31780	
1002	0	31808	
1003	0	31768	
1004	0	31672	
1005	0	31664	
1006	0	31744	
1007	0	31864	
1008	0	31968	
1009	0	32076	
1010	0	32110	
1011	0	32164	
1012	0	32184	
1013	0	32120	
1014	0	32050	
1015	0	31988	
1016	0	31936	
1017	0	31844	
1018	0	31728	
1019	0	31730	
1020	0	31770	
1021	0	31757	
1022	0	31736	
1023	0	31764	
1024	0	31800	
1025	0	31760	
1026	0	31704	
1027	0	31672	
1028	0	31720	
1029	0	31824	
1030	0	31880	
1031	0	31758	
1032	0	31604	
1033	0	31508	
1034	0	31572	
1035	0	31764	
1036	0	31976	
1037	0	32216	
1038	0	32372	
1039	0	32492	
1040	0	32692	
1041	0	32832	
1042	0	32936	
1043	0	32940	
1044	0	32804	
1045	0	32548	
1046	0	32168	
1047	0	31624	
1048	0	30724	
1049	0	29568	
1050	0	28428	
1051	0	27268	
1052	0	25812	
1053	0	24204	
1054	0	22442	
1055	0	20588	
1056	0	18600	
1057	0	16492	
1058	0	14264	
1059	0	12132	
1060	0	10934	
1061	0	10379	
1062	0	10128	
1063	0	10043	
1064	0	10026	
1065	0	10068	
1066	0	10113	
1067	0	10178	
1068	0	10244	
1069	0	10318	
1070	0	10389	
1071	0	10472	
1072	0	15361	
1073	0	19441	
1074	0	22572	
1075	0	25430	
1076	0	28224	
1077	0	31104	
1078	0	34120	
1079	0	37340	
1080	0	40492	
1081	0	43112	
1082	0	45128	
1083	0	46928	
1084	0	48680	
1085	0	50076	
1086	0	50792	
1087	0	50868	
1088	0	50528	
1089	0	50024	
1090	0	49424	
1091	0	48500	
1092	0	47160	
1093	0	45540	
1094	0	43792	
1095	0	41996	
1096	0	40352	
1097	0	38984	
1098	0	38012	
1099	0	37312	
1100	0	36708	
1101	0	36112	
1102	0	35580	
1103	0	35216	
1104	0	34812	
1105	0	34400	
1106	0	34000	
1107	0	33700	
1108	0	33484	
1109	0	33356	
1110	0	33280	
1111	0	33164	
1112	0	33036	
1113	0	32906	
1114	0	32852	
1115	0	32776	
1116	0	32780	
1117	0	32796	
1118	0	32816	
1119	0	32836	
1120	0	32816	
1121	0	32752	
1122	0	32656	
1123	0	32536	
1124	0	32436	
1125	0	32428	
1126	0	32524	
1127	0	32576	
1128	0	32452	
1129	0	32346	
1130	0	32308	
1131	0	32312	
1132	0	32376	
1133	0	32432	
1134	0	32460	
1135	0	32358	
1136	0	32232	
1137	0	32224	
1138	0	32216	
1139	0	32130	
1140	0	32100	
1141	0	32208	
1142	0	32240	
1143	0	32116	
1144	0	31980	
1145	0	31936	
1146	0	31972	
1147	0	32000	
1148	0	32008	
1149	0	31908	
1150	0	31768	
1151	0	31636	
1152	0	31588	
1153	0	31608	
1154	0	31688	
1155	0	31736	
1156	0	31724	
1157	0	31692	
1158	0	31696	
1159	0	31688	
1160	0	31616	
1161	0	31508	
1162	0	31372	
1163	0	31288	
1164	0	31272	
1165	0	31320	
1166	0	31428	
1167	0	31432	
1168	0	31408	
1169	0	31372	
1170	0	31372	
1171	0	31354	
1172	0	31372	
1173	0	31338	
1174	0	31276	
1175	0	31232	
1176	0	31148	
1177	0	31108	
1178	0	31080	
1179	0	31072	
1180	0	31116	
1181	0	31168	
1182	0	31112	
1183	0	31064	
1184	0	31000	
1185	0	30944	
1186	0	30954	
1187	0	31016	
1188	0	31048	
1189	0	31080	
1190	0	31000	
1191	0	30904	
1192	0	30820	
1193	0	30812	
1194	0	30728	
1195	0	30572	
1196	0	30448	
1197	0	30396	
1198	0	30396	
1199	0	30418	
1200	0	30296	
1201	0	30116	
1202	0	30072	
1203	0	30168	
1204	0	30252	
1205	0	30356	
1206	0	30452	
1207	0	30596	
1208	0	30720	
1209	0	30708	
1210	0	30568	
1211	0	30368	
1212	0	30232	
1213	0	30160	
1214	0	30128	
1215	0	30072	
1216	0	29992	
1217	0	29960	
1218	0	29988	
1219	0	29996	
1220	0	30032	
1221	0	30108	
1222	0	30108	
1223	0	30132	
1224	0	30084	
1225	0	30004	
1226	0	29992	
1227	0	30066	
1228	0	30112	
1229	0	30056	
1230	0	30044	
1231	0	30092	
1232	0	30172	
1233	0	30160	
1234	0	30092	
1235	0	30084	
1236	0	30120	
1237	0	30092	
1238	0	30096	
1239	0	30174	
1240	0	30288	
1241	0	30365	
1242	0	30340	
1243	0	30312	
1244	0	30468	
1245	0	30652	
1246	0	30756	
1247	0	30786	
1248	0	30832	
1249	0	30924	
1250	0	30836	
1251	0	30748	
1252	0	30744	
1253	0	30629	
1254	0	30608	
1255	0	30680	
1256	0	30828	
1257	0	30946	
1258	0	31000	
1259	0	31064	
1260	0	31080	
1261	0	31044	
1262	0	31036	
1263	0	31072	
1264	0	31096	
1265	0	31100	
1266	0	31060	
1267	0	31092	
1268	0	31200	
1269	0	31264	
1270	0	31280	
1271	0	31276	
1272	0	31296	
1273	0	31376	
1274	0	31476	
1275	0	31545	
1276	0	31572	
1277	0	31600	
1278	0	31636	
1279	0	31636	
1280	0	31616	
1281	0	31640	
1282	0	31764	
1283	0	31916	
1284	0	31992	
1285	0	32064	
1286	0	32140	
1287	0	32136	
1288	0	32136	
1289	0	32154	
1290	0	32188	
1291	0	32216	
1292	0	32188	
1293	0	32204	
1294	0	32172	
1295	0	32148	
1296	0	32128	
1297	0	32132	
1298	0	32108	
1299	0	32092	
1300	0	32048	
1301	0	32012	
1302	0	32000	
1303	0	32000	
1304	0	31970	
1305	0	32000	
1306	0	31980	
1307	0	31896	
1308	0	31792	
1309	0	31717	
1310	0	31628	
1311	0	31604	
1312	0	31624	
1313	0	31728	
1314	0	31900	
1315	0	31980	
1316	0	31968	
1317	0	32000	
1318	0	32092	
1319	0	32260	
1320	0	32402	
1321	0	32524	
1322	0	32640	
1323	0	32764	
1324	0	32888	
1325	0	32996	
1326	0	33096	
1327	0	33108	
1328	0	33132	
1329	0	33228	
1330	0	33268	
1331	0	33256	
1332	0	33216	
1333	0	33212	
1334	0	33264	
1335	0	33274	
1336	0	33264	
1337	0	33352	
1338	0	33436	
1339	0	33440	
1340	0	33484	
1341	0	33632	
1342	0	33828	
1343	0	33980	
1344	0	34080	
1345	0	34096	
1346	0	34104	
1347	0	34172	
1348	0	34220	
1349	0	34220	
1350	0	34192	
1351	0	34248	
1352	0	34332	
1353	0	34370	
1354	0	34332	
1355	0	34320	
1356	0	34320	
1357	0	34312	
1358	0	34278	
1359	0	34236	
1360	0	34260	
1361	0	34312	
1362	0	34332	
1363	0	34272	
1364	0	34296	
1365	0	34344	
1366	0	34372	
1367	0	34384	
1368	0	34340	
1369	0	34312	
1370	0	34352	
1371	0	34348	
1372	0	34220	
1373	0	34072	
1374	0	33988	
1375	0	34000	
1376	0	34000	
1377	0	33988	
1378	0	34060	
1379	0	34164	
1380	0	34244	
1381	0	34260	
1382	0	34208	
1383	0	34120	
1384	0	34032	
1385	0	33976	
1386	0	33916	
1387	0	33796	
1388	0	33810	
1389	0	33980	
1390	0	34080	
1391	0	34020	
1392	0	33892	
1393	0	33856	
1394	0	33908	
1395	0	33940	
1396	0	33956	
1397	0	33952	
1398	0	33912	
1399	0	33832	
1400	0	33812	
1401	0	33876	
1402	0	34028	
1403	0	34168	
1404	0	34268	
1405	0	34320	
1406	0	34344	
1407	0	34340	
1408	0	34304	
1409	0	34320	
1410	0	34420	
1411	0	34432	
1412	0	34332	
1413	0	34236	
1414	0	34200	
1415	0	34176	
1416	0	34100	
1417	0	33976	
1418	0	33876	
1419	0	33772	
1420	0	33704	
1421	0	33716	
1422	0	33768	
1423	0	33724	
1424	0	33608	
1425	0	33500	
1426	0	33440	
1427	0	33452	
1428	0	33504	
1429	0	33536	
1430	0	33584	
1431	0	33672	
1432	0	33652	
1433	0	33632	
1434	0	33676	
1435	0	33744	
1436	0	33836	
1437	0	33954	
1438	0	34004	
1439	0	34006	
1440	0	34012	
1441	0	33954	
1442	0	33856	
1443	0	33896	
1444	0	33988	
1445	0	34004	
1446	0	33980	
1447	0	34024	
1448	0	34112	
1449	0	34168	
1450	0	34244	
1451	0	34280	
1452	0	34228	
1453	0	34112	
1454	0	34096	
1455	0	34164	
1456	0	34201	
1457	0	34252	
1458	0	34300	
1459	0	34368	
1460	0	34484	
1461	0	34556	
1462	0	34592	
1463	0	34504	
1464	0	34400	
1465	0	34365	
1466	0	34336	
1467	0	34356	
1468	0	34456	
1469	0	34542	
1470	0	34480	
1471	0	34352	
1472	0	34232	
1473	0	34276	
1474	0	34388	
1475	0	34480	
1476	0	34448	
1477	0	34320	
1478	0	34196	
1479	0	34080	
1480	0	34072	
1481	0	34028	
1482	0	33944	
1483	0	33912	
1484	0	33992	
1485	0	34088	
1486	0	34088	
1487	0	34072	
1488	0	34064	
1489	0	34028	
1490	0	33996	
1491	0	34064	
1492	0	34240	
1493	0	34424	
1494	0	34380	
1495	0	34260	
1496	0	34128	
1497	0	34064	
1498	0	34108	
1499	0	34244	
1500	0	34384	
1501	0	34464	
1502	0	34476	
1503	0	34472	
1504	0	34464	
1505	0	34520	
1506	0	34684	
1507	0	34832	
1508	0	34876	
1509	0	34864	
1510	0	34892	
1511	0	35012	
1512	0	35096	
1513	0	35124	
1514	0	35056	
1515	0	34972	
1516	0	34828	
1517	0	34724	
1518	0	34684	
1519	0	34696	
1520	0	34668	
1521	0	34680	
1522	0	34708	
1523	0	34744	
1524	0	34780	
1525	0	34816	
1526	0	34716	
1527	0	34469	
1528	0	34252	
1529	0	34168	
1530	0	34232	
1531	0	34306	
1532	0	34380	
1533	0	34448	
1534	0	34536	
1535	0	34672	
1536	0	34868	
1537	0	35016	
1538	0	35096	
1539	0	35144	
1540	0	35112	
1541	0	34984	
1542	0	34808	
1543	0	34704	
1544	0	34564	
1545	0	34370	
1546	0	34212	
1547	0	34176	
1548	0	34180	
1549	0	34216	
1550	0	34264	
1551	0	34312	
1552	0	34358	
1553	0	34416	
1554	0	34528	
1555	0	34652	
1556	0	34808	
1557	0	34944	
1558	0	35020	
1559	0	35032	
1560	0	34972	
1561	0	34856	
1562	0	34728	
1563	0	34716	
1564	0	34772	
1565	0	34836	
1566	0	34928	
1567	0	34996	
1568	0	34964	
1569	0	34864	
1570	0	34816	
1571	0	34820	
1572	0	34736	
1573	0	34628	
1574	0	34500	
1575	0	34456	
1576	0	34460	
1577	0	34524	
1578	0	34608	
1579	0	34616	
1580	0	34640	
1581	0	34760	
1582	0	34884	
1583	0	34984	
1584	0	35044	
1585	0	35052	
1586	0	34968	
1587	0	34844	
1588	0	34736	
1589	0	34716	
1590	0	34696	
1591	0	34612	
1592	0	34520	
1593	0	34532	
1594	0	34488	
1595	0	34468	
1596	0	34544	
1597	0	34596	
1598	0	34740	
1599	0	34820	
1600	0	34700	
1601	0	34504	
1602	0	34384	
1603	0	34324	
1604	0	34184	
1605	0	33968	
1606	0	33688	
1607	0	33368	
1608	0	33017	
1609	0	32802	
1610	0	32620	
1611	0	32472	
1612	0	32366	
1613	0	32276	
1614	0	32206	
1615	0	32152	
1616	0	32196	
1617	0	32252	
1618	0	32224	
1619	0	32184	
1620	0	32072	
1621	0	31940	
1622	0	31924	
1623	0	31940	
1624	0	31932	
1625	0	31988	
1626	0	32009	
1627	0	31952	
1628	0	31928	
1629	0	31960	
1630	0	31948	
1631	0	31860	
1632	0	31800	
1633	0	31748	
1634	0	31596	
1635	0	31336	
1636	0	30992	
1637	0	30636	
1638	0	30376	
1639	0	30240	
1640	0	30164	
1641	0	30108	
1642	0	30004	
1643	0	29896	
1644	0	29844	
1645	0	29812	
1646	0	29852	
1647	0	30014	
1648	0	30204	
1649	0	30468	
1650	0	30816	
1651	0	31264	
1652	0	31740	
1653	0	32172	
1654	0	32592	
1655	0	32876	
1656	0	33072	
1657	0	33300	
1658	0	33488	
1659	0	33558	
1660	0	33620	
1661	0	33704	
1662	0	33776	
1663	0	33824	
1664	0	33904	
1665	0	34028	
1666	0	34113	
1667	0	34176	
1668	0	34308	
1669	0	34484	
1670	0	34648	
1671	0	34776	
1672	0	34892	
1673	0	34916	
1674	0	34852	
1675	0	34740	
1676	0	34748	
1677	0	34900	
1678	0	35104	
1679	0	35256	
1680	0	35388	
1681	0	35498	
1682	0	35604	
1683	0	35728	
1684	0	35840	
1685	0	35940	
1686	0	36104	
1687	0	36280	
1688	0	36468	
1689	0	36572	
1690	0	36600	
1691	0	36696	
1692	0	36764	
1693	0	36800	
1694	0	36832	
1695	0	36848	
1696	0	36880	
1697	0	36904	
1698	0	36944	
1699	0	37012	
1700	0	37084	
1701	0	37072	
1702	0	37072	
1703	0	37084	
1704	0	37040	
1705	0	36920	
1706	0	36848	
1707	0	36836	
1708	0	36784	
1709	0	36688	
1710	0	36520	
1711	0	36360	
1712	0	36236	
1713	0	36268	
1714	0	36360	
1715	0	36396	
1716	0	36460	
1717	0	36500	
1718	0	36482	
1719	0	36456	
1720	0	36452	
1721	0	36456	
1722	0	36408	
1723	0	36380	
1724	0	36368	
1725	0	36272	
1726	0	36228	
1727	0	36220	
1728	0	36224	
1729	0	36204	
1730	0	36184	
1731	0	36204	
1732	0	36228	
1733	0	36344	
1734	0	36556	
1735	0	36764	
1736	0	36992	
1737	0	37284	
1738	0	37492	
1739	0	37588	
1740	0	37604	
1741	0	37580	
1742	0	37496	
1743	0	37288	
1744	0	36928	
1745	0	36376	
1746	0	35528	
1747	0	34400	
1748	0	33112	
1749	0	31776	
1750	0	30156	
1751	0	28412	
1752	0	26724	
1753	0	25136	
1754	0	23420	
1755	0	21514	
1756	0	19376	
1757	0	17112	
1758	0	14848	
1759	0	12720	
1760	0	10798	
1761	0	9777	
1762	0	9308	
1763	0	9112	
1764	0	9074	
1765	0	9086	
1766	0	9139	
1767	0	9210	
1768	0	9290	
1769	0	12525	
1770	0	17780	
1771	0	22192	
1772	0	25540	
1773	0	28496	
1774	0	31288	
1775	0	34200	
1776	0	37264	
1777	0	40448	
1778	0	43552	
1779	0	46160	
1780	0	48064	
1781	0	49592	
1782	0	51124	
1783	0	52528	
1784	0	53528	
1785	0	54072	
1786	0	54104	
1787	0	53880	
1788	0	53472	
1789	0	52796	
1790	0	51752	
1791	0	50300	
1792	0	48628	
1793	0	46833	
1794	0	45116	
1795	0	43648	
1796	0	42472	
1797	0	41596	
1798	0	40960	
1799	0	40384	
1800	0	39804	
1801	0	39328	
1802	0	38976	
1803	0	38672	
1804	0	38416	
1805	0	38236	
1806	0	38056	
1807	0	37820	
1808	0	37624	
1809	0	37576	
1810	0	37628	
1811	0	37580	
1812	0	37436	
1813	0	37224	
1814	0	37040	
1815	0	36924	
1816	0	36932	
1817	0	37012	
1818	0	37064	
1819	0	37024	
1820	0	36880	
1821	0	36752	
1822	0	36704	
1823	0	36696	
1824	0	36644	
1825	0	36480	
1826	0	36436	
1827	0	36480	
1828	0	36600	
1829	0	36638	
1830	0	36588	
1831	0	36564	
1832	0	36552	
1833	0	36496	
1834	0	36424	
1835	0	36400	
1836	0	36420	
1837	0	36400	
1838	0	36320	
1839	0	36200	
1840	0	36112	
1841	0	36068	
1842	0	35984	
1843	0	35932	
1844	0	35940	
1845	0	36004	
1846	0	36080	
1847	0	36160	
1848	0	36248	
1849	0	36336	
1850	0	36336	
1851	0	36244	
1852	0	36136	
1853	0	35996	
1854	0	35804	
1855	0	35656	
1856	0	35612	
1857	0	35556	
1858	0	35530	
1859	0	35500	
1860	0	35428	
1861	0	35368	
1862	0	35292	
1863	0	35264	
1864	0	35236	
1865	0	35200	
1866	0	35160	
1867	0	35184	
1868	0	35216	
1869	0	35220	
1870	0	35216	
1871	0	35188	
1872	0	35160	
1873	0	35128	
1874	0	35072	
1875	0	35068	
1876	0	35080	
1877	0	35080	
1878	0	35036	
1879	0	34960	
1880	0	34984	
1881	0	35076	
1882	0	35097	
1883	0	35132	
1884	0	35109	
1885	0	35040	
1886	0	34932	
1887	0	34868	
1888	0	34756	
1889	0	34692	
1890	0	34684	
1891	0	34664	
1892	0	34676	
1893	0	34660	
1894	0	34640	
1895	0	34600	
1896	0	34520	
1897	0	34434	
1898	0	34400	
1899	0	34332	
1900	0	34256	
1901	0	34168	
1902	0	34198	
1903	0	34220	
1904	0	34180	
1905	0	34176	
1906	0	34188	
1907	0	34176	
1908	0	34174	
1909	0	34144	
1910	0	34084	
1911	0	34004	
1912	0	33896	
1913	0	33900	
1914	0	33968	
1915	0	33988	
1916	0	33944	
1917	0	33920	
1918	0	33864	
1919	0	33780	
1920	0	33728	
1921	0	33732	
1922	0	33764	
1923	0	33796	
1924	0	33760	
1925	0	33672	
1926	0	33608	
1927	0	33600	
1928	0	33544	
1929	0	33432	
1930	0	33344	
1931	0	33328	
1932	0	33376	
1933	0	33476	
1934	0	33548	
1935	0	33524	
1936	0	33516	
1937	0	33548	
1938	0	33648	
1939	0	33744	
1940	0	33792	
1941	0	33848	
1942	0	33900	
1943	0	33928	
1944	0	33912	
1945	0	33872	
1946	0	33898	
1947	0	33952	
1948	0	33960	
1949	0	33976	
1950	0	33924	
1951	0	33872	
1952	0	33828	
1953	0	33876	
1954	0	33976	
1955	0	33992	
1956	0	33984	
1957	0	34016	
1958	0	34118	
1959	0	34164	
1960	0	34268	
1961	0	34312	
1962	0	34340	
1963	0	34404	
1964	0	34448	
1965	0	34456	
1966	0	34464	
1967	0	34468	
1968	0	34412	
1969	0	34408	
1970	0	34464	
1971	0	34536	
1972	0	34604	
1973	0	34668	
1974	0	34724	
1975	0	34792	
1976	0	34764	
1977	0	34732	
1978	0	34720	
1979	0	34680	
1980	0	34680	
1981	0	34732	
1982	0	34856	
1983	0	34912	
1984	0	34916	
1985	0	34918	
1986	0	34892	
1987	0	34824	
1988	0	34736	
1989	0	34680	
1990	0	34716	
1991	0	34812	
1992	0	34816	
1993	0	34764	
1994	0	34656	
1995	0	34568	
1996	0	34656	
1997	0	34700	
1998	0	34648	
1999	0	34610	
2000	0	34554	
2001	0	34512	
2002	0	34508	
2003	0	34452	
2004	0	34444	
2005	0	34504	
2006	0	34588	
2007	0	34624	
2008	0	34592	
2009	0	34548	
2010	0	34480	
2011	0	34444	
2012	0	34420	
2013	0	34368	
2014	0	34308	
2015	0	34320	
2016	0	34400	
2017	0	34500	
2018	0	34608	
2019	0	34672	
2020	0	34720	
2021	0	34768	
2022	0	34812	
2023	0	34856	
2024	0	34944	
2025	0	35076	
2026	0	35152	
2027	0	35156	
2028	0	35144	
2029	0	35192	
2030	0	35260	
2031	0	35288	
2032	0	35380	
2033	0	35500	
2034	0	35576	
2035	0	35544	
2036	0	35560	
2037	0	35540	
2038	0	35444	
2039	0	35416	
2040	0	35440	
2041	0	35472	
2042	0	35488	
2043	0	35442	
2044	0	35416	
2045	0	35476	
2046	0	35576	
2047	0	35664	
2048	0	35688	
2049	0	35720	
2050	0	35792	
2051	0	35880	
2052	0	35960	
2053	0	35977	
2054	0	36004	
2055	0	36016	
2056	0	35960	
2057	0	35876	
2058	0	35820	
2059	0	35792	
2060	0	35816	
2061	0	35896	
2062	0	35944	
2063	0	35920	
2064	0	35916	
2065	0	35960	
2066	0	36060	
2067	0	36136	
2068	0	36160	
2069	0	36184	
2070	0	36237	
2071	0	36232	
2072	0	36236	
2073	0	36248	
2074	0	36288	
2075	0	36244	
2076	0	36204	
2077	0	36216	
2078	0	36232	
2079	0	36208	
2080	0	36096	
2081	0	35956	
2082	0	35816	
2083	0	35720	
2084	0	35680	
2085	0	35648	
2086	0	35604	
2087	0	35572	
2088	0	35508	
2089	0	35472	
2090	0	35468	
2091	0	35468	
2092	0	35452	
2093	0	35500	
2094	0	35616	
2095	0	35696	
2096	0	35804	
2097	0	35856	
2098	0	35900	
2099	0	35860	
2100	0	35792	
2101	0	35736	
2102	0	35612	
2103	0	35508	
2104	0	35544	
2105	0	35600	
2106	0	35528	
2107	0	35400	
2108	0	35244	
2109	0	35232	
2110	0	35336	
2111	0	35404	
2112	0	35408	
2113	0	35388	
2114	0	35304	
2115	0	35192	
2116	0	35164	
2117	0	35212	
2118	0	35272	
2119	0	35248	
2120	0	35200	
2121	0	35160	
2122	0	35172	
2123	0	35172	
2124	0	35184	
2125	0	35220	
2126	0	35264	
2127	0	35320	
2128	0	35320	
2129	0	35256	
2130	0	35196	
2131	0	35180	
2132	0	35108	
2133	0	35028	
2134	0	35104	
2135	0	35252	
2136	0	35376	
2137	0	35460	
2138	0	35472	
2139	0	35488	
2140	0	35528	
2141	0	35564	
2142	0	35556	
2143	0	35492	
2144	0	35460	
2145	0	35528	
2146	0	35528	
2147	0	35596	
2148	0	35616	
2149	0	35632	
2150	0	35602	
2151	0	35608	
2152	0	35708	
2153	0	35800	
2154	0	35736	
2155	0	35620	
2156	0	35576	
2157	0	35552	
2158	0	35540	
2159	0	35584	
2160	0	35604	
2161	0	35628	
2162	0	35576	
2163	0	35492	
2164	0	35432	
2165	0	35468	
2166	0	35544	
2167	0	35564	
2168	0	35656	
2169	0	35704	
2170	0	35628	
2171	0	35576	
2172	0	35592	
2173	0	35640	
2174	0	35724	
2175	0	35712	
2176	0	35704	
2177	0	35676	
2178	0	35680	
2179	0	35756	
2180	0	35856	
2181	0	35920	
2182	0	35964	
2183	0	35980	
2184	0	36008	
2185	0	35968	
2186	0	35936	
2187	0	35852	
2188	0	35744	
2189	0	35664	
2190	0	35616	
2191	0	35640	
2192	0	35692	
2193	0	35720	
2194	0	35728	
2195	0	35792	
2196	0	35760	
2197	0	35648	
2198	0	35580	
2199	0	35624	
2200	0	35732	
2201	0	35864	
2202	0	35948	
2203	0	36040	
2204	0	36068	
2205	0	36096	
2206	0	36096	
2207	0	36128	
2208	0	36224	
2209	0	36290	
2210	0	36268	
2211	0	36292	
2212	0	36300	
2213	0	36268	
2214	0	36252	
2215	0	36288	
2216	0	36332	
2217	0	36344	
2218	0	36408	
2219	0	36508	
2220	0	36480	
2221	0	36436	
2222	0	36348	
2223	0	36232	
2224	0	36096	
2225	0	36072	
2226	0	36092	
2227	0	36160	
2228	0	36232	
2229	0	36272	
2230	0	36216	
2231	0	36192	
2232	0	36172	
2233	0	36140	
2234	0	36124	
2235	0	36060	
2236	0	36008	
2237	0	36016	
2238	0	36060	
2239	0	36056	
2240	0	36048	
2241	0	36044	
2242	0	36048	
2243	0	36048	
2244	0	36088	
2245	0	36152	
2246	0	36264	
2247	0	36364	
2248	0	36404	
2249	0	36472	
2250	0	36512	
2251	0	36468	
2252	0	36408	
2253	0	36348	
2254	0	36264	
2255	0	36208	
2256	0	36228	
2257	0	36308	
2258	0	36396	
2259	0	36436	
2260	0	36496	
2261	0	36560	
2262	0	36592	
2263	0	36540	
2264	0	36416	
2265	0	36316	
2266	0	36316	
2267	0	36380	
2268	0	36448	
2269	0	36456	
2270	0	36428	
2271	0	36436	
2272	0	36504	
2273	0	36456	
2274	0	36360	
2275	0	36350	
2276	0	36340	
2277	0	36324	
2278	0	36270	
2279	0	36188	
2280	0	36092	
2281	0	36036	
2282	0	36008	
2283	0	35968	
2284	0	36056	
2285	0	36196	
2286	0	36252	
2287	0	36208	
2288	0	36170	
2289	0	36180	
2290	0	36236	
2291	0	36248	
2292	0	36244	
2293	0	36308	
2294	0	36376	
2295	0	36440	
2296	0	36372	
2297	0	36252	
2298	0	36144	
2299	0	36048	
2300	0	36036	
2301	0	36064	
2302	0	36048	
2303	0	36052	
2304	0	36052	
2305	0	36016	
2306	0	35972	
2307	0	36000	
2308	0	35984	
2309	0	35984	
2310	0	36036	
2311	0	36048	
2312	0	36024	
2313	0	35952	
2314	0	35896	
2315	0	35900	
2316	0	35924	
2317	0	35888	
2318	0	35952	
2319	0	36152	
2320	0	36176	
2321	0	36062	
2322	0	35924	
2323	0	35840	
2324	0	35840	
2325	0	35836	
2326	0	35832	
2327	0	35824	
2328	0	35740	
2329	0	35648	
2330	0	35496	
2331	0	35228	
2332	0	34952	
2333	0	34656	
2334	0	34392	
2335	0	34280	
2336	0	34224	
2337	0	34124	
2338	0	33968	
2339	0	33848	
2340	0	33776	
2341	0	33664	
2342	0	33512	
2343	0	33392	
2344	0	33448	
2345	0	33484	
2346	0	33464	
2347	0	33446	
2348	0	33376	
2349	0	33348	
2350	0	33322	
2351	0	33336	
2352	0	33256	
2353	0	33144	
2354	0	33120	
2355	0	33116	
2356	0	33040	
2357	0	32952	
2358	0	32936	
2359	0	32848	
2360	0	32608	
2361	0	32292	
2362	0	31964	
2363	0	31660	
2364	0	31432	
2365	0	31248	
2366	0	31000	
2367	0	30740	
2368	0	30508	
2369	0	30196	
2370	0	29952	
2371	0	29801	
2372	0	29736	
2373	0	29760	
2374	0	29996	
2375	0	30426	
2376	0	30944	
2377	0	31496	
2378	0	31992	
2379	0	32392	
2380	0	32772	
2381	0	33096	
2382	0	33372	
2383	0	33636	
2384	0	33748	
2385	0	33812	
2386	0	33924	
2387	0	34064	
2388	0	34148	
2389	0	34216	
2390	0	34288	
2391	0	34292	
2392	0	34280	
2393	0	34296	
2394	0	34396	
2395	0	34544	
2396	0	34600	
2397	0	34692	
2398	0	34808	
2399	0	34844	
2400	0	34896	
2401	0	35016	
2402	0	35208	
2403	0	35468	
2404	0	35664	
2405	0	35816	
2406	0	35996	
2407	0	36124	
2408	0	36136	
2409	0	36248	
2410	0	36384	
2411	0	36512	
2412	0	36616	
2413	0	36734	
2414	0	36904	
2415	0	37008	
2416	0	37040	
2417	0	37088	
2418	0	37074	
2419	0	37032	
2420	0	37092	
2421	0	37184	
2422	0	37208	
2423	0	37220	
2424	0	37288	
2425	0	37400	
2426	0	37500	
2427	0	37496	
2428	0	37432	
2429	0	37320	
2430	0	37184	
2431	0	37056	
2432	0	37016	
2433	0	36988	
2434	0	37012	
2435	0	37196	
2436	0	37332	
2437	0	37256	
2438	0	37044	
2439	0	36872	
2440	0	36856	
2441	0	36904	
2442	0	36872	
2443	0	36752	
2444	0	36644	
2445	0	36560	
2446	0	36500	
2447	0	36468	
2448	0	36436	
2449	0	36408	
2450	0	36356	
2451	0	36324	
2452	0	36328	
2453	0	36324	
2454	0	36308	
2455	0	36356	
2456	0	36400	
2457	0	36464	
2458	0	36604	
2459	0	36720	
2460	0	36792	
2461	0	36832	
2462	0	36872	
2463	0	36928	
2464	0	37084	
2465	0	37252	
2466	0	37304	
2467	0	37244	
2468	0	37060	
2469	0	36740	
2470	0	36192	
2471	0	35424	
2472	0	34512	
2473	0	33320	
2474	0	32064	
2475	0	30636	
2476	0	29072	
2477	0	27434	
2478	0	25764	
2479	0	24010	
2480	0	22274	
2481	0	20448	
2482	0	18336	
2483	0	16184	
2484	0	14064	
2485	0	11968	
2486	0	9938	
2487	0	7842	
2488	0	6109	
2489	0	5270	
2490	0	5356	
2491	0	6252	
2492	0	7960	
2493	0	10578	
2494	0	14346	
2495	0	18952	
2496	0	23492	
2497	0	27260	
2498	0	30464	
2499	0	33296	
2500	0	36112	
2501	0	38920	
2502	0	41740	
2503	0	44424	
2504	0	46612	
2505	0	48384	
2506	0	49968	
2507	0	51564	
2508	0	53032	
2509	0	54036	
2510	0	54516	
2511	0	54548	
2512	0	54412	
2513	0	54140	
2514	0	53732	
2515	0	53096	
2516	0	52064	
2517	0	50640	
2518	0	48968	
2519	0	47224	
2520	0	45604	
2521	0	44192	
2522	0	43080	
2523	0	42210	
2524	0	41480	
2525	0	40828	
2526	0	40236	
2527	0	39680	
2528	0	39178	
2529	0	38740	
2530	0	38228	
2531	0	37744	
2532	0	37272	
2533	0	36884	
2534	0	36592	
2535	0	36352	
2536	0	36144	
2537	0	36072	
2538	0	36068	
2539	0	36056	
2540	0	35976	
2541	0	35872	
2542	0	35836	
2543	0	35752	
2544	0	35708	
2545	0	35780	
2546	0	35768	
2547	0	35716	
2548	0	35744	
2549	0	35776	
2550	0	35790	
2551	0	35784	
2552	0	35808	
2553	0	35780	
2554	0	35724	
2555	0	35676	
2556	0	35732	
2557	0	35836	
2558	0	35808	
2559	0	35764	
2560	0	35776	
2561	0	35732	
2562	0	35656	
2563	0	35536	
2564	0	35392	
2565	0	35336	
2566	0	35312	
2567	0	35228	
2568	0	35064	
2569	0	34916	
2570	0	34888	
2571	0	34876	
2572	0	34892	
2573	0	34808	
2574	0	34736	
2575	0	34680	
2576	0	34616	
2577	0	34544	
2578	0	34536	
2579	0	34532	
2580	0	34496	
2581	0	34432	
2582	0	34364	
2583	0	34276	
2584	0	34180	
2585	0	34064	
2586	0	33892	
2587	0	33704	
2588	0	33612	
2589	0	33588	
2590	0	33576	
2591	0	33508	
2592	0	33456	
2593	0	33400	
2594	0	33396	
2595	0	33432	
2596	0	33508	
2597	0	33480	
2598	0	33356	
2599	0	33308	
2600	0	33372	
2601	0	33472	
2602	0	33564	
2603	0	33608	
2604	0	33576	
2605	0	33536	
2606	0	33560	
2607	0	33696	
2608	0	33716	
2609	0	33608	
2610	0	33420	
2611	0	33324	
2612	0	33336	
2613	0	33348	
2614	0	33336	
2615	0	33332	
2616	0	33284	
2617	0	33132	
2618	0	32960	
2619	0	32810	
2620	0	32656	
2621	0	32524	
2622	0	32408	
2623	0	32348	
2624	0	32344	
2625	0	32328	
2626	0	32312	
2627	0	32308	
2628	0	32304	
2629	0	32328	
2630	0	32352	
2631	0	32456	
2632	0	32536	
2633	0	32560	
2634	0	32532	
2635	0	32524	
2636	0	32552	
2637	0	32516	
2638	0	32448	
2639	0	32414	
2640	0	32476	
2641	0	32532	
2642	0	32586	
2643	0	32624	
2644	0	32592	
2645	0	32556	
2646	0	32528	
2647	0	32500	
2648	0	32496	
2649	0	32472	
2650	0	32488	
2651	0	32492	
2652	0	32528	
2653	0	32500	
2654	0	32396	
2655	0	32324	
2656	0	32300	
2657	0	32240	
2658	0	32136	
2659	0	32100	
2660	0	32120	
2661	0	32172	
2662	0	32232	
2663	0	32300	
2664	0	32384	
2665	0	32376	
2666	0	32304	
2667	0	32296	
2668	0	32388	
2669	0	32468	
2670	0	32512	
2671	0	32472	
2672	0	32414	
2673	0	32340	
2674	0	32284	
2675	0	32288	
2676	0	32360	
2677	0	32536	
2678	0	32528	
2679	0	32324	
2680	0	32148	
2681	0	32100	
2682	0	32080	
2683	0	32076	
2684	0	32176	
2685	0	32308	
2686	0	32484	
2687	0	32680	
2688	0	32872	
2689	0	33004	
2690	0	32976	
2691	0	32860	
2692	0	32776	
2693	0	32740	
2694	0	32752	
2695	0	32764	
2696	0	32770	
2697	0	32704	
2698	0	32620	
2699	0	32588	
2700	0	32584	
2701	0	32620	
2702	0	32696	
2703	0	32768	
2704	0	32792	
2705	0	32788	
2706	0	32768	
2707	0	32740	
2708	0	32744	
2709	0	32696	
2710	0	32664	
2711	0	32640	
2712	0	32596	
2713	0	32613	
2714	0	32652	
2715	0	32620	
2716	0	32580	
2717	0	32540	
2718	0	32544	
2719	0	32556	
2720	0	32528	
2721	0	32456	
2722	0	32416	
2723	0	32372	
2724	0	32308	
2725	0	32272	
2726	0	32256	
2727	0	32242	
2728	0	32264	
2729	0	32320	
2730	0	32352	
2731	0	32405	
2732	0	32384	
2733	0	32316	
2734	0	32268	
2735	0	32204	
2736	0	32216	
2737	0	32260	
2738	0	32224	
2739	0	32164	
2740	0	32136	
2741	0	32172	
2742	0	32216	
2743	0	32312	
2744	0	32408	
2745	0	32548	
2746	0	32744	
2747	0	32852	
2748	0	32932	
2749	0	32984	
2750	0	33016	
2751	0	33064	
2752	0	33144	
2753	0	33304	
2754	0	33496	
2755	0	33596	
2756	0	33544	
2757	0	33420	
2758	0	33340	
2759	0	33296	
2760	0	33276	
2761	0	33344	
2762	0	33496	
2763	0	33536	
2764	0	33536	
2765	0	33616	
2766	0	33776	
2767	0	33872	
2768	0	33952	
2769	0	34152	
2770	0	34300	
2771	0	34232	
2772	0	34034	
2773	0	33860	
2774	0	33888	
2775	0	33956	
2776	0	34080	
2777	0	34176	
2778	0	34156	
2779	0	34124	
2780	0	34160	
2781	0	34136	
2782	0	34080	
2783	0	34132	
2784	0	34232	
2785	0	34296	
2786	0	34340	
2787	0	34448	
2788	0	34524	
2789	0	34584	
2790	0	34620	
2791	0	34588	
2792	0	34496	
2793	0	34372	
2794	0	34204	
2795	0	34104	
2796	0	34024	
2797	0	33978	
2798	0	33912	
2799	0	33836	
2800	0	33752	
2801	0	33664	
2802	0	33628	
2803	0	33540	
2804	0	33484	
2805	0	33484	
2806	0	33488	
2807	0	33504	
2808	0	33556	
2809	0	33604	
2810	0	33656	
2811	0	33748	
2812	0	33784	
2813	0	33764	
2814	0	33764	
2815	0	33760	
2816	0	33768	
2817	0	33768	
2818	0	33741	
2819	0	33664	
2820	0	33584	
2821	0	33548	
2822	0	33584	
2823	0	33588	
2824	0	33568	
2825	0	33604	
2826	0	33668	
2827	0	33680	
2828	0	33692	
2829	0	33784	
2830	0	33892	
2831	0	33944	
2832	0	33924	
2833	0	33866	
2834	0	33824	
2835	0	33868	
2836	0	33872	
2837	0	33796	
2838	0	33700	
2839	0	33616	
2840	0	33548	
2841	0	33500	
2842	0	33440	
2843	0	33436	
2844	0	33452	
2845	0	33416	
2846	0	33304	
2847	0	33148	
2848	0	33076	
2849	0	33092	
2850	0	33116	
2851	0	33152	
2852	0	33164	
2853	0	33184	
2854	0	33244	
2855	0	33280	
2856	0	33298	
2857	0	33302	
2858	0	33268	
2859	0	33240	
2860	0	33240	
2861	0	33280	
2862	0	33348	
2863	0	33360	
2864	0	33316	
2865	0	33280	
2866	0	33256	
2867	0	33244	
2868	0	33368	
2869	0	33592	
2870	0	33708	
2871	0	33552	
2872	0	33292	
2873	0	33176	
2874	0	33164	
2875	0	33136	
2876	0	33076	
2877	0	33016	
2878	0	32940	
2879	0	32900	
2880	0	32880	
2881	0	32960	
2882	0	33112	
2883	0	33248	
2884	0	33240	
2885	0	33240	
2886	0	33176	
2887	0	33096	
2888	0	33072	
2889	0	33088	
2890	0	33080	
2891	0	33056	
2892	0	33048	
2893	0	33078	
2894	0	32992	
2895	0	32912	
2896	0	32856	
2897	0	32784	
2898	0	32712	
2899	0	32652	
2900	0	32576	
2901	0	32536	
2902	0	32488	
2903	0	32464	
2904	0	32452	
2905	0	32468	
2906	0	32504	
2907	0	32592	
2908	0	32708	
2909	0	32848	
2910	0	32856	
2911	0	32796	
2912	0	32804	
2913	0	32844	
2914	0	32936	
2915	0	33004	
2916	0	32980	
2917	0	32984	
2918	0	32996	
2919	0	32973	
2920	0	32964	
2921	0	32940	
2922	0	32876	
2923	0	32788	
2924	0	32808	
2925	0	32876	
2926	0	32964	
2927	0	33016	
2928	0	33040	
2929	0	33016	
2930	0	33004	
2931	0	32988	
2932	0	32990	
2933	0	33024	
2934	0	33108	
2935	0	33164	
2936	0	33136	
2937	0	33026	
2938	0	32964	
2939	0	32988	
2940	0	33068	
2941	0	33128	
2942	0	33164	
2943	0	33220	
2944	0	33280	
2945	0	33320	
2946	0	33324	
2947	0	33328	
2948	0	33368	
2949	0	33436	
2950	0	33476	
2951	0	33428	
2952	0	33320	
2953	0	33172	
2954	0	33056	
2955	0	33068	
2956	0	33120	
2957	0	33128	
2958	0	33132	
2959	0	33196	
2960	0	33252	
2961	0	33320	
2962	0	33360	
2963	0	33428	
2964	0	33408	
2965	0	33312	
2966	0	33200	
2967	0	33160	
2968	0	33184	
2969	0	33188	
2970	0	33184	
2971	0	33280	
2972	0	33320	
2973	0	33348	
2974	0	33240	
2975	0	33048	
2976	0	32920	
2977	0	32860	
2978	0	32824	
2979	0	32804	
2980	0	32844	
2981	0	32960	
2982	0	33072	
2983	0	33176	
2984	0	33216	
2985	0	33276	
2986	0	33320	
2987	0	33498	
2988	0	33600	
2989	0	33552	
2990	0	33456	
2991	0	33504	
2992	0	33592	
2993	0	33656	
2994	0	33692	
2995	0	33628	
2996	0	33556	
2997	0	33492	
2998	0	33484	
2999	0	33452	
3000	0	33434	
3001	0	33412	
3002	0	33408	
3003	0	33388	
3004	0	33352	
3005	0	33320	
3006	0	33260	
3007	0	33198	
3008	0	33180	
3009	0	33220	
3010	0	33184	
3011	0	33124	
3012	0	33152	
3013	0	33216	
3014	0	33288	
3015	0	33354	
3016	0	33428	
3017	0	33504	
3018	0	33477	
3019	0	33484	
3020	0	33572	
3021	0	33676	
3022	0	33704	
3023	0	33756	
3024	0	33680	
3025	0	33512	
3026	0	33364	
3027	0	33244	
3028	0	33112	
3029	0	32972	
3030	0	32828	
3031	0	32620	
3032	0	32344	
3033	0	32072	
3034	0	31852	
3035	0	31628	
3036	0	31384	
3037	0	31208	
3038	0	31084	
3039	0	30984	
3040	0	30976	
3041	0	30944	
3042	0	30904	
3043	0	30850	
3044	0	30836	
3045	0	30780	
3046	0	30724	
3047	0	30600	
3048	0	30438	
3049	0	30360	
3050	0	30376	
3051	0	30508	
3052	0	30592	
3053	0	30652	
3054	0	30720	
3055	0	30716	
3056	0	30685	
3057	0	30676	
3058	0	30630	
3059	0	30536	
3060	0	30416	
3061	0	30260	
3062	0	30044	
3063	0	29740	
3064	0	29344	
3065	0	28976	
3066	0	28680	
3067	0	28460	
3068	0	28286	
3069	0	28144	
3070	0	28076	
3071	0	27964	
3072	0	27912	
3073	0	27940	
3074	0	28060	
3075	0	28236	
3076	0	28472	
3077	0	28704	
3078	0	28972	
3079	0	29296	
3080	0	29560	
3081	0	29844	
3082	0	30204	
3083	0	30572	
3084	0	30904	
3085	0	31240	
3086	0	31592	
3087	0	31888	
3088	0	32120	
3089	0	32248	
3090	0	32292	
3091	0	32376	
3092	0	32432	
3093	0	32416	
3094	0	32316	
3095	0	32248	
3096	0	32228	
3097	0	32304	
3098	0	32492	
3099	0	32752	
3100	0	32960	
3101	0	33148	
3102	0	33220	
3103	0	33264	
3104	0	33344	
3105	0	33540	
3106	0	33728	
3107	0	33872	
3108	0	33988	
3109	0	34048	
3110	0	34040	
3111	0	33980	
3112	0	34012	
3113	0	34168	
3114	0	34362	
3115	0	34572	
3116	0	34772	
3117	0	34928	
3118	0	35044	
3119	0	35168	
3120	0	35220	
3121	0	35168	
3122	0	35136	
3123	0	35104	
3124	0	35084	
3125	0	35052	
3126	0	35080	
3127	0	35152	
3128	0	35248	
3129	0	35284	
3130	0	35276	
3131	0	35172	
3132	0	35061	
3133	0	34924	
3134	0	34856	
3135	0	34852	
3136	0	34880	
3137	0	34884	
3138	0	34856	
3139	0	34828	
3140	0	34792	
3141	0	34816	
3142	0	34864	
3143	0	34932	
3144	0	34900	
3145	0	34824	
3146	0	34792	
3147	0	34796	
3148	0	34808	
3149	0	34812	
3150	0	34820	
3151	0	34808	
3152	0	34776	
3153	0	34772	
3154	0	34746	
3155	0	34708	
3156	0	34660	
3157	0	34656	
3158	0	34620	
3159	0	34608	
3160	0	34684	
3161	0	34800	
3162	0	34996	
3163	0	35184	
3164	0	35360	
3165	0	35540	
3166	0	35792	
3167	0	36004	
3168	0	36072	
3169	0	36016	
3170	0	35832	
3171	0	35536	
3172	0	35076	
3173	0	34440	
3174	0	33608	
3175	0	32620	
3176	0	31416	
3177	0	30162	
3178	0	28692	
3179	0	27072	
3180	0	25464	
3181	0	23848	
3182	0	22056	
3183	0	20188	
3184	0	18200	
3185	0	16032	
3186	0	13872	
3187	0	11840	
3188	0	9628	
3189	0	7396	
3190	0	5271	
3191	0	3739	
3192	0	3134	
3193	0	3294	
3194	0	4332	
3195	0	5980	
3196	0	8404	
3197	0	12186	
3198	0	16884	
3199	0	21324	
3200	0	24920	
3201	0	27968	
3202	0	30872	
3203	0	33864	
3204	0	37096	
3205	0	40580	
3206	0	43864	
3207	0	46528	
3208	0	48584	
3209	0	50388	
3210	0	52092	
3211	0	53332	
3212	0	54104	
3213	0	54260	
3214	0	53992	
3215	0	53484	
3216	0	52828	
3217	0	51976	
3218	0	50856	
3219	0	49368	
3220	0	47568	
3221	0	45712	
3222	0	43944	
3223	0	42468	
3224	0	41452	
3225	0	40640	
3226	0	39856	
3227	0	39080	
3228	0	38448	
3229	0	38012	
3230	0	37548	
3231	0	37128	
3232	0	36705	
3233	0	36232	
3234	0	35796	
3235	0	35508	
3236	0	35268	
3237	0	35042	
3238	0	34852	
3239	0	34752	
3240	0	34696	
3241	0	34700	
3242	0	34704	
3243	0	34688	
3244	0	34696	
3245	0	34760	
3246	0	34832	
3247	0	34936	
3248	0	34956	
3249	0	34988	
3250	0	35000	
3251	0	34948	
3252	0	34912	
3253	0	34884	
3254	0	34800	
3255	0	34640	
3256	0	34456	
3257	0	34344	
3258	0	34264	
3259	0	34176	
3260	0	34128	
3261	0	34104	
3262	0	34092	
3263	0	34076	
3264	0	34112	
3265	0	34156	
3266	0	34188	
3267	0	34180	
3268	0	34156	
3269	0	34116	
3270	0	34080	
3271	0	34064	
3272	0	33980	
3273	0	33896	
3274	0	33856	
3275	0	33852	
3276	0	33828	
3277	0	33760	
3278	0	33676	
3279	0	33616	
3280	0	33592	
3281	0	33572	
3282	0	33656	
3283	0	33696	
3284	0	33690	
3285	0	33652	
3286	0	33632	
3287	0	33632	
3288	0	33568	
3289	0	33480	
3290	0	33452	
3291	0	33472	
3292	0	33488	
3293	0	33448	
3294	0	33400	
3295	0	33304	
3296	0	33220	
3297	0	33160	
3298	0	33140	
3299	0	33108	
3300	0	33064	
3301	0	33016	
3302	0	32988	
3303	0	33052	
3304	0	33148	
3305	0	33148	
3306	0	33140	
3307	0	33086	
3308	0	33016	
3309	0	32940	
3310	0	32888	
3311	0	32826	
3312	0	32748	
3313	0	32760	
3314	0	32792	
3315	0	32808	
3316	0	32772	
3317	0	32720	
3318	0	32700	
3319	0	32760	
3320	0	32836	
3321	0	32808	
3322	0	32640	
3323	0	32570	
3324	0	32500	
3325	0	32424	
3326	0	32444	
3327	0	32404	
3328	0	32256	
3329	0	32152	
3330	0	32140	
3331	0	32128	
3332	0	32080	
3333	0	32052	
3334	0	32004	
3335	0	31908	
3336	0	31864	
3337	0	31828	
3338	0	31800	
3339	0	31764	
3340	0	31716	
3341	0	31700	
3342	0	31688	
3343	0	31680	
3344	0	31692	
3345	0	31708	
3346	0	31704	
3347	0	31720	
3348	0	31720	
3349	0	31664	
3350	0	31648	
3351	0	31648	
3352	0	31668	
3353	0	31684	
3354	0	31716	
3355	0	31680	
3356	0	31636	
3357	0	31680	
3358	0	31760	
3359	0	31788	
3360	0	31816	
3361	0	31836	
3362	0	31808	
3363	0	31752	
3364	0	31692	
3365	0	31676	
3366	0	31644	
3367	0	31644	
3368	0	31680	
3369	0	31752	
3370	0	31796	
3371	0	31864	
3372	0	31940	
3373	0	31972	
3374	0	31908	
3375	0	31914	
3376	0	31988	
3377	0	32077	
3378	0	32152	
3379	0	32168	
3380	0	32208	
3381	0	32288	
3382	0	32326	
3383	0	32304	
3384	0	32252	
3385	0	32276	
3386	0	32268	
3387	0	32268	
3388	0	32292	
3389	0	32268	
3390	0	32292	
3391	0	32380	
3392	0	32544	
3393	0	32616	
3394	0	32604	
3395	0	32620	
3396	0	32636	
3397	0	32608	
3398	0	32576	
3399	0	32608	
3400	0	32612	
3401	0	32560	
3402	0	32580	
3403	0	32704	
3404	0	32828	
3405	0	33000	
3406	0	33020	
3407	0	32972	
3408	0	32976	
3409	0	32976	
3410	0	33036	
3411	0	33141	
3412	0	33200	
3413	0	33196	
3414	0	33156	
3415	0	33144	
3416	0	33124	
3417	0	33056	
3418	0	32896	
3419	0	32756	
3420	0	32660	
3421	0	32552	
3422	0	32448	
3423	0	32344	
3424	0	32300	
3425	0	32352	
3426	0	32384	
3427	0	32368	
3428	0	32480	
3429	0	32620	
3430	0	32716	
3431	0	32768	
3432	0	32800	
3433	0	32832	
3434	0	32860	
3435	0	32800	
3436	0	32768	
3437	0	32780	
3438	0	32816	
3439	0	32828	
3440	0	32800	
3441	0	32768	
3442	0	32704	
3443	0	32690	
3444	0	32788	
3445	0	32876	
3446	0	32890	
3447	0	32916	
3448	0	33020	
3449	0	33120	
3450	0	33176	
3451	0	33220	
3452	0	33268	
3453	0	33364	
3454	0	33448	
3455	0	33460	
3456	0	33504	
3457	0	33500	
3458	0	33440	
3459	0	33364	
3460	0	33368	
3461	0	33528	
3462	0	33660	
3463	0	33684	
3464	0	33652	
3465	0	33688	
3466	0	33752	
3467	0	33840	
3468	0	34008	
3469	0	34144	
3470	0	34224	
3471	0	34272	
3472	0	34300	
3473	0	34320	
3474	0	34476	
3475	0	34684	
3476	0	34714	
3477	0	34660	
3478	0	34592	
3479	0	34608	
3480	0	34586	
3481	0	34504	
3482	0	34468	
3483	0	34476	
3484	0	34520	
3485	0	34528	
3486	0	34552	
3487	0	34616	
3488	0	34774	
3489	0	34820	
3490	0	34820	
3491	0	34812	
3492	0	34744	
3493	0	34688	
3494	0	34688	
3495	0	34740	
3496	0	34800	
3497	0	34752	
3498	0	34596	
3499	0	34516	
3500	0	34504	
3501	0	34432	
3502	0	34284	
3503	0	34160	
3504	0	34104	
3505	0	34076	
3506	0	34024	
3507	0	34008	
3508	0	34016	
3509	0	34036	
3510	0	34120	
3511	0	34212	
3512	0	34240	
3513	0	34216	
3514	0	34148	
3515	0	34052	
3516	0	34002	
3517	0	34000	
3518	0	33976	
3519	0	33944	
3520	0	33884	
3521	0	33812	
3522	0	33800	
3523	0	33752	
3524	0	33776	
3525	0	33948	
3526	0	34112	
3527	0	34052	
3528	0	34024	
3529	0	34124	
3530	0	34276	
3531	0	34413	
3532	0	34472	
3533	0	34364	
3534	0	34192	
3535	0	34052	
3536	0	33936	
3537	0	33892	
3538	0	33780	
3539	0	33602	
3540	0	33445	
3541	0	33336	
3542	0	33332	
3543	0	33380	
3544	0	33464	
3545	0	33556	
3546	0	33598	
3547	0	33612	
3548	0	33664	
3549	0	33700	
3550	0	33712	
3551	0	33728	
3552	0	33688	
3553	0	33604	
3554	0	33568	
3555	0	33560	
3556	0	33624	
3557	0	33684	
3558	0	33652	
3559	0	33596	
3560	0	33552	
3561	0	33493	
3562	0	33448	
3563	0	33436	
3564	0	33472	
3565	0	33608	
3566	0	33800	
3567	0	33960	
3568	0	34052	
3569	0	34064	
3570	0	34060	
3571	0	34072	
3572	0	34008	
3573	0	33896	
3574	0	33728	
3575	0	33548	
3576	0	33476	
3577	0	33496	
3578	0	33448	
3579	0	33368	
3580	0	33368	
3581	0	33468	
3582	0	33512	
3583	0	33584	
3584	0	33780	
3585	0	33960	
3586	0	34072	
3587	0	34120	
3588	0	34120	
3589	0	34164	
3590	0	34112	
3591	0	34080	
3592	0	34100	
3593	0	34184	
3594	0	34196	
3595	0	34140	
3596	0	34152	
3597	0	34160	
3598	0	34172	
3599	0	34250	
3600	0	34192	
3601	0	34124	
3602	0	34136	
3603	0	34068	
3604	0	33948	
3605	0	33876	
3606	0	33768	
3607	0	33744	
3608	0	33792	
3609	0	33856	
3610	0	33944	
3611	0	34024	
3612	0	34184	
3613	0	34320	
3614	0	34425	
3615	0	34488	
3616	0	34496	
3617	0	34410	
3618	0	34354	
3619	0	34372	
3620	0	34356	
3621	0	34296	
3622	0	34192	
3623	0	34124	
3624	0	34096	
3625	0	34120	
3626	0	34128	
3627	0	34136	
3628	0	34176	
3629	0	34220	
3630	0	34236	
3631	0	34224	
3632	0	34176	
3633	0	34224	
3634	0	34388	
3635	0	34377	
3636	0	34320	
3637	0	34297	
3638	0	34348	
3639	0	34344	
3640	0	34324	
3641	0	34272	
3642	0	34212	
3643	0	34188	
3644	0	34268	
3645	0	34396	
3646	0	34424	
3647	0	34428	
3648	0	34540	
3649	0	34660	
3650	0	34652	
3651	0	34644	
3652	0	34668	
3653	0	34584	
3654	0	34512	
3655	0	34484	
3656	0	34446	
3657	0	34412	
3658	0	34412	
3659	0	34420	
3660	0	34444	
3661	0	34436	
3662	0	34480	
3663	0	34476	
3664	0	34408	
3665	0	34356	
3666	0	34316	
3667	0	34280	
3668	0	34280	
3669	0	34258	
3670	0	34216	
3671	0	34232	
3672	0	34292	
3673	0	34352	
3674	0	34376	
3675	0	34404	
3676	0	34412	
3677	0	34420	
3678	0	34416	
3679	0	34400	
3680	0	34320	
3681	0	34288	
3682	0	34336	
3683	0	34312	
3684	0	34256	
3685	0	34228	
3686	0	34196	
3687	0	34244	
3688	0	34300	
3689	0	34212	
3690	0	34152	
3691	0	34112	
3692	0	34128	
3693	0	34120	
3694	0	34164	
3695	0	34172	
3696	0	34044	
3697	0	33896	
3698	0	33800	
3699	0	33804	
3700	0	33920	
3701	0	33992	
3702	0	34076	
3703	0	34152	
3704	0	34244	
3705	0	34360	
3706	0	34528	
3707	0	34464	
3708	0	34332	
3709	0	34216	
3710	0	34096	
3711	0	34040	
3712	0	34060	
3713	0	34164	
3714	0	34184	
3715	0	34132	
3716	0	34168	
3717	0	34200	
3718	0	34192	
3719	0	34176	
3720	0	34156	
3721	0	34208	
3722	0	34316	
3723	0	34316	
3724	0	34344	
3725	0	34264	
3726	0	34332	
3727	0	34464	
3728	0	34444	
3729	0	34424	
3730	0	34424	
3731	0	34400	
3732	0	34336	
3733	0	34320	
3734	0	34370	
3735	0	34280	
3736	0	34084	
3737	0	34008	
3738	0	34036	
3739	0	34112	
3740	0	34196	
3741	0	34160	
3742	0	34108	
3743	0	34088	
3744	0	34128	
3745	0	34148	
3746	0	34176	
3747	0	34224	
3748	0	34192	
3749	0	34104	
3750	0	34080	
3751	0	34080	
3752	0	34050	
3753	0	33988	
3754	0	33936	
3755	0	33880	
3756	0	33900	
3757	0	33964	
3758	0	34024	
3759	0	34000	
3760	0	33976	
3761	0	34028	
3762	0	34040	
3763	0	33984	
3764	0	34032	
3765	0	34072	
3766	0	34140	
3767	0	34108	
3768	0	33952	
3769	0	33768	
3770	0	33604	
3771	0	33452	
3772	0	33232	
3773	0	32944	
3774	0	32596	
3775	0	32336	
3776	0	32096	
3777	0	31904	
3778	0	31804	
3779	0	31728	
3780	0	31664	
3781	0	31684	
3782	0	31700	
3783	0	31700	
3784	0	31632	
3785	0	31512	
3786	0	31468	
3787	0	31560	
3788	0	31720	
3789	0	31736	
3790	0	31576	
3791	0	31448	
3792	0	31338	
3793	0	31320	
3794	0	31325	
3795	0	31280	
3796	0	31172	
3797	0	31080	
3798	0	31032	
3799	0	30904	
3800	0	30609	
3801	0	30356	
3802	0	30136	
3803	0	30000	
3804	0	29836	
3805	0	29700	
3806	0	29568	
3807	0	29436	
3808	0	29248	
3809	0	29032	
3810	0	28848	
3811	0	28788	
3812	0	28856	
3813	0	29052	
3814	0	29264	
3815	0	29508	
3816	0	29828	
3817	0	30224	
3818	0	30664	
3819	0	31088	
3820	0	31468	
3821	0	31848	
3822	0	32204	
3823	0	32576	
3824	0	32868	
3825	0	33008	
3826	0	33128	
3827	0	33184	
3828	0	33136	
3829	0	32996	
3830	0	32924	
3831	0	32948	
3832	0	33056	
3833	0	33258	
3834	0	33540	
3835	0	33772	
3836	0	33792	
3837	0	33844	
3838	0	34092	
3839	0	34216	
3840	0	33992	
3841	0	33824	
3842	0	33856	
3843	0	34080	
3844	0	34272	
3845	0	34432	
3846	0	34524	
3847	0	34460	
3848	0	34480	
3849	0	34712	
3850	0	34996	
3851	0	35260	
3852	0	35464	
3853	0	35596	
3854	0	35700	
3855	0	35760	
3856	0	35812	
3857	0	35920	
3858	0	36028	
3859	0	36000	
3860	0	35920	
3861	0	35852	
3862	0	35760	
3863	0	35600	
3864	0	35488	
3865	0	35480	
3866	0	35532	
3867	0	35552	
3868	0	35500	
3869	0	35464	
3870	0	35440	
3871	0	35424	
3872	0	35482	
3873	0	35504	
3874	0	35466	
3875	0	35340	
3876	0	35380	
3877	0	35452	
3878	0	35440	
3879	0	35472	
3880	0	35480	
3881	0	35460	
3882	0	35352	
3883	0	35372	
3884	0	35476	
3885	0	35592	
3886	0	35720	
3887	0	35672	
3888	0	35584	
3889	0	35500	
3890	0	35492	
3891	0	35512	
3892	0	35500	
3893	0	35444	
3894	0	35352	
3895	0	35268	
3896	0	35344	
3897	0	35436	
3898	0	35556	
3899	0	35616	
3900	0	35732	
3901	0	35844	
3902	0	35968	
3903	0	36104	
3904	0	36204	
3905	0	36328	
3906	0	36316	
3907	0	36100	
3908	0	35664	
3909	0	35204	
3910	0	34620	
3911	0	33716	
3912	0	32576	
3913	0	31364	
3914	0	30064	
3915	0	28568	
3916	0	27000	
3917	0	25408	
3918	0	23660	
3919	0	21721	
3920	0	19592	
3921	0	17280	
3922	0	14910	
3923	0	12626	
3924	0	10460	
3925	0	8396	
3926	0	6360	
3927	0	4400	
3928	0	3180	
3929	0	2932	
3930	0	3209	
3931	0	4139	
3932	0	5844	
3933	0	8872	
3934	0	13042	
3935	0	17468	
3936	0	21180	
3937	0	24240	
3938	0	27218	
3939	0	30164	
3940	0	33200	
3941	0	36352	
3942	0	39600	
3943	0	42540	
3944	0	44920	
3945	0	46788	
3946	0	48472	
3947	0	50200	
3948	0	51616	
3949	0	52520	
3950	0	52868	
3951	0	52804	
3952	0	52528	
3953	0	51972	
3954	0	51016	
3955	0	49772	
3956	0	48268	
3957	0	46652	
3958	0	44996	
3959	0	43424	
3960	0	42104	
3961	0	41148	
3962	0	40480	
3963	0	39984	
3964	0	39476	
3965	0	38868	
3966	0	38316	
3967	0	37808	
3968	0	37288	
3969	0	36884	
3970	0	36512	
3971	0	36260	
3972	0	36048	
3973	0	35916	
3974	0	35852	
3975	0	35808	
3976	0	35704	
3977	0	35652	
3978	0	35732	
3979	0	35684	
3980	0	35638	
3981	0	35592	
3982	0	35548	
3983	0	35572	
3984	0	35572	
3985	0	35600	
3986	0	35744	
3987	0	35852	
3988	0	35854	
3989	0	35784	
3990	0	35704	
3991	0	35636	
3992	0	35708	
3993	0	35792	
3994	0	35696	
3995	0	35652	
3996	0	35520	
3997	0	35412	
3998	0	35308	
3999	0	35200	
4000	0	35116	
4001	0	35024	
4002	0	34944	
4003	0	34836	
4004	0	34772	
4005	0	34740	
4006	0	34744	
4007	0	34704	
4008	0	34624	
4009	0	34600	
4010	0	34628	
4011	0	34738	
4012	0	34760	
4013	0	34696	
4014	0	34616	
4015	0	34512	
4016	0	34340	
4017	0	34356	
4018	0	34376	
4019	0	34336	
4020	0	34252	
4021	0	34152	
4022	0	34088	
4023	0	34072	
4024	0	34104	
4025	0	34160	
4026	0	34096	
4027	0	33968	
4028	0	33944	
4029	0	34020	
4030	0	34024	
4031	0	33820	
4032	0	33648	
4033	0	33514	
4034	0	33456	
4035	0	33496	
4036	0	33492	
4037	0	33432	
4038	0	33344	
4039	0	33292	
4040	0	33284	
4041	0	33268	
4042	0	33296	
4043	0	33304	
4044	0	33364	
4045	0	33328	
4046	0	33180	
4047	0	33148	
4048	0	33200	
4049	0	33168	
4050	0	33192	
4051	0	33168	
4052	0	33120	
4053	0	33072	
4054	0	33072	
4055	0	33044	
4056	0	33036	
4057	0	33042	
4058	0	32928	
4059	0	32808	
4060	0	32760	
4061	0	32784	
4062	0	32768	
4063	0	32684	
4064	0	32660	
4065	0	32756	
4066	0	32916	
4067	0	32940	
4068	0	32808	
4069	0	32656	
4070	0	32688	
4071	0	32688	
4072	0	32600	
4073	0	32464	
4074	0	32380	
4075	0	32288	
4076	0	32216	
4077	0	32144	
4078	0	32088	
4079	0	32020	
4080	0	31972	
4081	0	32008	
4082	0	32016	
4083	0	31880	
4084	0	31884	
4085	0	31972	
4086	0	31956	
4087	0	32008	
4088	0	32108	
4089	0	32232	
4090	0	32240	
4091	0	32128	
4092	0	32052	
4093	0	32028	
4094	0	32052	
4095	0	32016	
4096	0	31932	
4097	0	31868	
4098	0	31928	
4099	0	32056	
4100	0	32176	
4101	0	32232	
4102	0	32208	
4103	0	32220	
4104	0	32268	
4105	0	32336	
4106	0	32320	
4107	0	32280	
4108	0	32280	
4109	0	32320	
4110	0	32332	
4111	0	32356	
4112	0	32444	
4113	0	32524	
4114	0	32572	
4115	0	32536	
4116	0	32520	
4117	0	32556	
4118	0	32584	
4119	0	32572	
4120	0	32580	
4121	0	32638	
4122	0	32688	
4123	0	32760	
4124	0	32800	
4125	0	32788	
4126	0	32832	
4127	0	32868	
4128	0	32896	
4129	0	32864	
4130	0	32756	
4131	0	32744	
4132	0	32884	
4133	0	32856	
4134	0	32760	
4135	0	32736	
4136	0	32720	
4137	0	32680	
4138	0	32792	
4139	0	32756	
4140	0	32788	
4141	0	32906	
4142	0	32984	
4143	0	32944	
4144	0	32888	
4145	0	32940	
4146	0	33082	
4147	0	33196	
4148	0	33264	
4149	0	33208	
4150	0	33136	
4151	0	33208	
4152	0	33196	
4153	0	33092	
4154	0	33028	
4155	0	33052	
4156	0	33096	
4157	0	33176	
4158	0	33196	
4159	0	33176	
4160	0	33160	
4161	0	33116	
4162	0	33064	
4163	0	33020	
4164	0	32996	
4165	0	32984	
4166	0	32956	
4167	0	32968	
4168	0	32904	
4169	0	32804	
4170	0	32804	
4171	0	32816	
4172	0	32784	
4173	0	32792	
4174	0	32752	
4175	0	32700	
4176	0	32644	
4177	0	32628	
4178	0	32620	
4179	0	32644	
4180	0	32724	
4181	0	32893	
4182	0	33008	
4183	0	33064	
4184	0	33108	
4185	0	33184	
4186	0	33232	
4187	0	33280	
4188	0	33264	
4189	0	33184	
4190	0	33112	
4191	0	33140	
4192	0	33156	
4193	0	33168	
4194	0	33232	
4195	0	33392	
4196	0	33536	
4197	0	33520	
4198	0	33472	
4199	0	33473	
4200	0	33472	
4201	0	33508	
4202	0	33532	
4203	0	33540	
4204	0	33408	
4205	0	33344	
4206	0	33360	
4207	0	33418	
4208	0	33512	
4209	0	33632	
4210	0	33700	
4211	0	33704	
4212	0	33744	
4213	0	33816	
4214	0	33872	
4215	0	33932	
4216	0	33852	
4217	0	33748	
4218	0	33720	
4219	0	33748	
4220	0	33796	
4221	0	33768	
4222	0	33704	
4223	0	33744	
4224	0	33864	
4225	0	33944	
4226	0	33960	
4227	0	34008	
4228	0	34100	
4229	0	34168	
4230	0	34204	
4231	0	34268	
4232	0	34360	
4233	0	34408	
4234	0	34392	
4235	0	34414	
4236	0	34408	
4237	0	34344	
4238	0	34316	
4239	0	34208	
4240	0	34068	
4241	0	34076	
4242	0	34060	
4243	0	33932	
4244	0	33872	
4245	0	33896	
4246	0	33828	
4247	0	33736	
4248	0	33616	
4249	0	33496	
4250	0	33496	
4251	0	33528	
4252	0	33624	
4253	0	33660	
4254	0	33680	
4255	0	33784	
4256	0	33936	
4257	0	34008	
4258	0	33876	
4259	0	33756	
4260	0	33720	
4261	0	33752	
4262	0	33816	
4263	0	33780	
4264	0	33740	
4265	0	33648	
4266	0	33548	
4267	0	33432	
4268	0	33332	
4269	0	33272	
4270	0	33272	
4271	0	33296	
4272	0	33370	
4273	0	33396	
4274	0	33428	
4275	0	33440	
4276	0	33424	
4277	0	33352	
4278	0	33324	
4279	0	33330	
4280	0	33284	
4281	0	33208	
4282	0	33196	
4283	0	33212	
4284	0	33200	
4285	0	33180	
4286	0	33164	
4287	0	33236	
4288	0	33280	
4289	0	33224	
4290	0	33160	
4291	0	33184	
4292	0	33228	
4293	0	33312	
4294	0	33412	
4295	0	33472	
4296	0	33484	
4297	0	33436	
4298	0	33368	
4299	0	33328	
4300	0	33348	
4301	0	33360	
4302	0	33428	
4303	0	33528	
4304	0	33656	
4305	0	33628	
4306	0	33520	
4307	0	33480	
4308	0	33498	
4309	0	33472	
4310	0	33445	
4311	0	33436	
4312	0	33452	
4313	0	33516	
4314	0	33564	
4315	0	33548	
4316	0	33524	
4317	0	33500	
4318	0	33508	
4319	0	33528	
4320	0	33569	
4321	0	33576	
4322	0	33588	
4323	0	33572	
4324	0	33592	
4325	0	33644	
4326	0	33696	
4327	0	33664	
4328	0	33620	
4329	0	33576	
4330	0	33580	
4331	0	33620	
4332	0	33656	
4333	0	33676	
4334	0	33704	
4335	0	33712	
4336	0	33676	
4337	0	33640	
4338	0	33592	
4339	0	33592	
4340	0	33616	
4341	0	33632	
4342	0	33640	
4343	0	33636	
4344	0	33620	
4345	0	33572	
4346	0	33492	
4347	0	33426	
4348	0	33408	
4349	0	33416	
4350	0	33488	
4351	0	33556	
4352	0	33608	
4353	0	33648	
4354	0	33704	
4355	0	33712	
4356	0	33704	
4357	0	33764	
4358	0	33848	
4359	0	33900	
4360	0	33960	
4361	0	34032	
4362	0	34112	
4363	0	34148	
4364	0	34140	
4365	0	34064	
4366	0	34028	
4367	0	33976	
4368	0	33936	
4369	0	33952	
4370	0	34012	
4371	0	34032	
4372	0	34088	
4373	0	34136	
4374	0	34176	
4375	0	34240	
4376	0	34228	
4377	0	34148	
4378	0	34096	
4379	0	34028	
4380	0	33960	
4381	0	33940	
4382	0	33964	
4383	0	34028	
4384	0	34032	
4385	0	33964	
4386	0	33900	
4387	0	33844	
4388	0	33820	
4389	0	33856	
4390	0	33840	
4391	0	33800	
4392	0	33800	
4393	0	33880	
4394	0	33904	
4395	0	33868	
4396	0	33824	
4397	0	33796	
4398	0	33842	
4399	0	33852	
4400	0	33876	
4401	0	33908	
4402	0	33952	
4403	0	34020	
4404	0	34044	
4405	0	34008	
4406	0	33992	
4407	0	33984	
4408	0	33980	
4409	0	33988	
4410	0	33960	
4411	0	33860	
4412	0	33800	
4413	0	33828	
4414	0	33896	
4415	0	34040	
4416	0	34100	
4417	0	34056	
4418	0	34008	
4419	0	33976	
4420	0	33888	
4421	0	33844	
4422	0	33896	
4423	0	33900	
4424	0	33796	
4425	0	33756	
4426	0	33816	
4427	0	33944	
4428	0	34004	
4429	0	33978	
4430	0	33924	
4431	0	33890	
4432	0	33908	
4433	0	33956	
4434	0	34040	
4435	0	34068	
4436	0	34072	
4437	0	34056	
4438	0	34024	
4439	0	34014	
4440	0	34024	
4441	0	34064	
4442	0	34020	
4443	0	34036	
4444	0	34136	
4445	0	34220	
4446	0	34284	
4447	0	34300	
4448	0	34284	
4449	0	34316	
4450	0	34340	
4451	0	34384	
4452	0	34400	
4453	0	34344	
4454	0	34354	
4455	0	34328	
4456	0	34296	
4457	0	34280	
4458	0	34272	
4459	0	34184	
4460	0	34048	
4461	0	33968	
4462	0	33916	
4463	0	33952	
4464	0	34000	
4465	0	34042	
4466	0	34088	
4467	0	34124	
4468	0	34160	
4469	0	34208	
4470	0	34276	
4471	0	34360	
4472	0	34376	
4473	0	34340	
4474	0	34288	
4475	0	34252	
4476	0	34244	
4477	0	34268	
4478	0	34344	
4479	0	34408	
4480	0	34412	
4481	0	34382	
4482	0	34296	
4483	0	34160	
4484	0	34080	
4485	0	34096	
4486	0	34068	
4487	0	34036	
4488	0	34096	
4489	0	34184	
4490	0	34124	
4491	0	34048	
4492	0	33998	
4493	0	34024	
4494	0	34068	
4495	0	34064	
4496	0	34020	
4497	0	34080	
4498	0	34165	
4499	0	34160	
4500	0	34068	
4501	0	33908	
4502	0	33680	
4503	0	33472	
4504	0	33264	
4505	0	32992	
4506	0	32744	
4507	0	32548	
4508	0	32400	
4509	0	32292	
4510	0	32208	
4511	0	32204	
4512	0	32224	
4513	0	32160	
4514	0	32056	
4515	0	31984	
4516	0	31940	
4517	0	31880	
4518	0	31828	
4519	0	31840	
4520	0	31994	
4521	0	32152	
4522	0	32212	
4523	0	32020	
4524	0	31756	
4525	0	31560	
4526	0	31465	
4527	0	31412	
4528	0	31312	
4529	0	31322	
4530	0	31240	
4531	0	31036	
4532	0	30752	
4533	0	30504	
4534	0	30260	
4535	0	29960	
4536	0	29652	
4537	0	29432	
4538	0	29334	
4539	0	29240	
4540	0	29124	
4541	0	28924	
4542	0	28720	
4543	0	28648	
4544	0	28720	
4545	0	28880	
4546	0	29100	
4547	0	29376	
4548	0	29744	
4549	0	30172	
4550	0	30472	
4551	0	30638	
4552	0	30800	
4553	0	31056	
4554	0	31300	
4555	0	31592	
4556	0	31960	
4557	0	32276	
4558	0	32520	
4559	0	32680	
4560	0	32736	
4561	0	32692	
4562	0	32636	
4563	0	32592	
4564	0	32552	
4565	0	32604	
4566	0	32792	
4567	0	33124	
4568	0	33528	
4569	0	33870	
4570	0	34136	
4571	0	34316	
4572	0	34320	
4573	0	34236	
4574	0	34240	
4575	0	34420	
4576	0	34640	
4577	0	34768	
4578	0	34888	
4579	0	34880	
4580	0	34853	
4581	0	34900	
4582	0	35076	
4583	0	35320	
4584	0	35524	
4585	0	35776	
4586	0	36040	
4587	0	36152	
4588	0	36128	
4589	0	36080	
4590	0	36160	
4591	0	36300	
4592	0	36396	
4593	0	36484	
4594	0	36624	
4595	0	36664	
4596	0	36504	
4597	0	36368	
4598	0	36280	
4599	0	36232	
4600	0	36248	
4601	0	36240	
4602	0	36212	
4603	0	36232	
4604	0	36260	
4605	0	36290	
4606	0	36412	
4607	0	36444	
4608	0	36400	
4609	0	36396	
4610	0	36300	
4611	0	36192	
4612	0	36200	
4613	0	36264	
4614	0	36212	
4615	0	36104	
4616	0	35984	
4617	0	35924	
4618	0	35916	
4619	0	35896	
4620	0	35900	
4621	0	35948	
4622	0	36004	
4623	0	35972	
4624	0	35872	
4625	0	35872	
4626	0	35948	
4627	0	36064	
4628	0	36140	
4629	0	36188	
4630	0	36168	
4631	0	36164	
4632	0	36312	
4633	0	36560	
4634	0	36616	
4635	0	36500	
4636	0	36532	
4637	0	36632	
4638	0	36696	
4639	0	36768	
4640	0	36692	
4641	0	36496	
4642	0	36056	
4643	0	35300	
4644	0	34360	
4645	0	33196	
4646	0	31828	
4647	0	30456	
4648	0	28876	
4649	0	27356	
4650	0	25872	
4651	0	24340	
4652	0	22736	
4653	0	20984	
4654	0	18924	
4655	0	16676	
4656	0	14381	
4657	0	12160	
4658	0	10084	
4659	0	8051	
4660	0	6053	
4661	0	4517	
4662	0	3973	
4663	0	4286	
4664	0	5591	
4665	0	7604	
4666	0	10701	
4667	0	14992	
4668	0	19800	
4669	0	24320	
4670	0	27976	
4671	0	31016	
4672	0	33684	
4673	0	36168	
4674	0	38584	
4675	0	41164	
4676	0	43604	
4677	0	45680	
4678	0	47400	
4679	0	48920	
4680	0	50580	
4681	0	51984	
4682	0	52852	
4683	0	53248	
4684	0	53192	
4685	0	53004	
4686	0	52628	
4687	0	52144	
4688	0	51428	
4689	0	50288	
4690	0	48776	
4691	0	47136	
4692	0	45488	
4693	0	43900	
4694	0	42672	
4695	0	41736	
4696	0	40908	
4697	0	40208	
4698	0	39544	
4699	0	38920	
4700	0	38360	
4701	0	37884	
4702	0	37520	
4703	0	37236	
4704	0	36922	
4705	0	36648	
4706	0	36500	
4707	0	36408	
4708	0	36304	
4709	0	36196	
4710	0	36152	
4711	0	36080	
4712	0	35920	
4713	0	35836	
4714	0	35816	
4715	0	35868	
4716	0	35912	
4717	0	35972	
4718	0	35912	
4719	0	35956	
4720	0	36004	
4721	0	35888	
4722	0	35752	
4723	0	35616	
4724	0	35544	
4725	0	35500	
4726	0	35416	
4727	0	35356	
4728	0	35272	
4729	0	35168	
4730	0	35108	
4731	0	35168	
4732	0	35248	
4733	0	35312	
4734	0	35208	
4735	0	35068	
4736	0	34988	
4737	0	34932	
4738	0	34874	
4739	0	34656	
4740	0	34512	
4741	0	34522	
4742	0	34552	
4743	0	34536	
4744	0	34528	
4745	0	34544	
4746	0	34512	
4747	0	34548	
4748	0	34648	
4749	0	34666	
4750	0	34600	
4751	0	34556	
4752	0	34488	
4753	0	34448	
4754	0	34444	
4755	0	34428	
4756	0	34376	
4757	0	34280	
4758	0	34260	
4759	0	34200	
4760	0	34088	
4761	0	34040	
4762	0	34058	
4763	0	34044	
4764	0	33988	
4765	0	33916	
4766	0	33824	
4767	0	33720	
4768	0	33652	
4769	0	33620	
4770	0	33632	
4771	0	33720	
4772	0	33748	
4773	0	33724	
4774	0	33696	
4775	0	33640	
4776	0	33608	
4777	0	33605	
4778	0	33584	
4779	0	33540	
4780	0	33528	
4781	0	33544	
4782	0	33508	
4783	0	33452	
4784	0	33388	
4785	0	33308	
4786	0	33240	
4787	0	33132	
4788	0	33100	
4789	0	33132	
4790	0	33116	
4791	0	33116	
4792	0	33076	
4793	0	33004	
4794	0	32928	
4795	0	32792	
4796	0	32776	
4797	0	32768	
4798	0	32604	
4799	0	32472	
4800	0	32544	
4801	0	32624	
4802	0	32496	
4803	0	32328	
4804	0	32336	
4805	0	32452	
4806	0	32578	
4807	0	32656	
4808	0	32560	
4809	0	32512	
4810	0	32516	
4811	0	32556	
4812	0	32608	
4813	0	32596	
4814	0	32528	
4815	0	32468	
4816	0	32388	
4817	0	32316	
4818	0	32230	
4819	0	32149	
4820	0	32172	
4821	0	32214	
4822	0	32188	
4823	0	32096	
4824	0	31976	
4825	0	31976	
4826	0	32016	
4827	0	32032	
4828	0	32028	
4829	0	32048	
4830	0	32084	
4831	0	32216	
4832	0	32304	
4833	0	32260	
4834	0	32164	
4835	0	32044	
4836	0	31976	
4837	0	31948	
4838	0	31912	
4839	0	31800	
4840	0	31752	
4841	0	31712	
4842	0	31670	
4843	0	31772	
4844	0	31920	
4845	0	31976	
4846	0	32048	
4847	0	32156	
4848	0	32296	
4849	0	32394	
4850	0	32440	
4851	0	32424	
4852	0	32480	
4853	0	32568	
4854	0	32660	
4855	0	32704	
4856	0	32600	
4857	0	32488	
4858	0	32440	
4859	0	32496	
4860	0	32512	
4861	0	32536	
4862	0	32536	
4863	0	32632	
4864	0	32732	
4865	0	32745	
4866	0	32760	
4867	0	32904	
4868	0	32984	
4869	0	32940	
4870	0	32864	
4871	0	32892	
4872	0	32952	
4873	0	32944	
4874	0	32884	
4875	0	32908	
4876	0	32876	
4877	0	32752	
4878	0	32680	
4879	0	32704	
4880	0	32728	
4881	0	32772	
4882	0	32816	
4883	0	32788	
4884	0	32736	
4885	0	32684	
4886	0	32624	
4887	0	32536	
4888	0	32496	
4889	0	32480	
4890	0	32440	
4891	0	32360	
4892	0	32286	
4893	0	32288	
4894	0	32264	
4895	0	32268	
4896	0	32240	
4897	0	32152	
4898	0	32184	
4899	0	32172	
4900	0	32056	
4901	0	31906	
4902	0	31816	
4903	0	31728	
4904	0	31772	
4905	0	31822	
4906	0	31848	
4907	0	31940	
4908	0	32112	
4909	0	32260	
4910	0	32372	
4911	0	32464	
4912	0	32496	
4913	0	32420	
4914	0	32360	
4915	0	32276	
4916	0	32172	
4917	0	32144	
4918	0	32200	
4919	0	32204	
4920	0	32214	
4921	0	32324	
4922	0	32416	
4923	0	32472	
4924	0	32576	
4925	0	32584	
4926	0	32568	
4927	0	32596	
4928	0	32664	
4929	0	32780	
4930	0	32892	
4931	0	32952	
4932	0	32965	
4933	0	33076	
4934	0	33216	
4935	0	33300	
4936	0	33404	
4937	0	33560	
4938	0	33748	
4939	0	33948	
4940	0	34016	
4941	0	33956	
4942	0	33884	
4943	0	33916	
4944	0	33980	
4945	0	33916	
4946	0	33796	
4947	0	33676	
4948	0	33648	
4949	0	33608	
4950	0	33532	
4951	0	33504	
4952	0	33572	
4953	0	33708	
4954	0	33788	
4955	0	33744	
4956	0	33696	
4957	0	33620	
4958	0	33608	
4959	0	33632	
4960	0	33660	
4961	0	33728	
4962	0	33880	
4963	0	33968	
4964	0	33980	
4965	0	33984	
4966	0	34028	
4967	0	34024	
4968	0	34064	
4969	0	34144	
4970	0	34236	
4971	0	34256	
4972	0	34116	
4973	0	34028	
4974	0	33984	
4975	0	33944	
4976	0	33824	
4977	0	33748	
4978	0	33740	
4979	0	33692	
4980	0	33644	
4981	0	33632	
4982	0	33588	
4983	0	33524	
4984	0	33536	
4985	0	33604	
4986	0	33636	
4987	0	33572	
4988	0	33552	
4989	0	33588	
4990	0	33572	
4991	0	33488	
4992	0	33392	
4993	0	33280	
4994	0	33228	
4995	0	33216	
4996	0	33240	
4997	0	33328	
4998	0	33384	
4999	0	33364	
5000	0	33324	
5001	0	33232	
5002	0	33184	
5003	0	33152	
5004	0	33152	
5005	0	33145	
5006	0	33138	
5007	0	33120	
5008	0	33088	
5009	0	33092	
5010	0	33158	
5011	0	33156	
5012	0	33096	
5013	0	32994	
5014	0	32916	
5015	0	32898	
5016	0	32940	
5017	0	32988	
5018	0	33008	
5019	0	32992	
5020	0	32988	
5021	0	33000	
5022	0	32964	
5023	0	32828	
5024	0	32768	
5025	0	32776	
5026	0	32789	
5027	0	32808	
5028	0	32844	
5029	0	32852	
5030	0	32844	
5031	0	32912	
5032	0	32952	
5033	0	32912	
5034	0	32868	
5035	0	32924	
5036	0	32984	
5037	0	33010	
5038	0	33032	
5039	0	33044	
5040	0	33128	
5041	0	33172	
5042	0	33124	
5043	0	33020	
5044	0	32904	
5045	0	32824	
5046	0	32780	
5047	0	32808	
5048	0	32888	
5049	0	32852	
5050	0	32712	
5051	0	32544	
5052	0	32488	
5053	0	32444	
5054	0	32444	
5055	0	32496	
5056	0	32548	
5057	0	32544	
5058	0	32548	
5059	0	32640	
5060	0	32752	
5061	0	32753	
5062	0	32700	
5063	0	32660	
5064	0	32616	
5065	0	32580	
5066	0	32616	
5067	0	32604	
5068	0	32576	
5069	0	32536	
5070	0	32480	
5071	0	32464	
5072	0	32488	
5073	0	32500	
5074	0	32544	
5075	0	32658	
5076	0	32804	
5077	0	32764	
5078	0	32688	
5079	0	32540	
5080	0	32508	
5081	0	32544	
5082	0	32524	
5083	0	32476	
5084	0	32456	
5085	0	32512	
5086	0	32532	
5087	0	32496	
5088	0	32448	
5089	0	32468	
5090	0	32468	
5091	0	32484	
5092	0	32528	
5093	0	32608	
5094	0	32688	
5095	0	32736	
5096	0	32752	
5097	0	32828	
5098	0	32924	
5099	0	32880	
5100	0	32776	
5101	0	32744	
5102	0	32760	
5103	0	32696	
5104	0	32708	
5105	0	32778	
5106	0	32836	
5107	0	32864	
5108	0	32880	
5109	0	32940	
5110	0	32952	
5111	0	32952	
5112	0	32916	
5113	0	32900	
5114	0	32872	
5115	0	32816	
5116	0	32756	
5117	0	32756	
5118	0	32824	
5119	0	32848	
5120	0	32748	
5121	0	32652	
5122	0	32602	
5123	0	32560	
5124	0	32592	
5125	0	32676	
5126	0	32724	
5127	0	32728	
5128	0	32764	
5129	0	32856	
5130	0	32976	
5131	0	33076	
5132	0	33172	
5133	0	33160	
5134	0	32944	
5135	0	32688	
5136	0	32464	
5137	0	32276	
5138	0	32168	
5139	0	32140	
5140	0	32176	
5141	0	32240	
5142	0	32312	
5143	0	32368	
5144	0	32340	
5145	0	32288	
5146	0	32284	
5147	0	32360	
5148	0	32416	
5149	0	32432	
5150	0	32440	
5151	0	32424	
5152	0	32452	
5153	0	32512	
5154	0	32544	
5155	0	32588	
5156	0	32656	
5157	0	32628	
5158	0	32532	
5159	0	32408	
5160	0	32340	
5161	0	32380	
5162	0	32474	
5163	0	32648	
5164	0	32868	
5165	0	33088	
5166	0	33228	
5167	0	33212	
5168	0	33096	
5169	0	32916	
5170	0	32672	
5171	0	32522	
5172	0	32442	
5173	0	32484	
5174	0	32636	
5175	0	32688	
5176	0	32580	
5177	0	32440	
5178	0	32336	
5179	0	32344	
5180	0	32460	
5181	0	32580	
5182	0	32642	
5183	0	32720	
5184	0	32768	
5185	0	32784	
5186	0	32852	
5187	0	32946	
5188	0	32980	
5189	0	32944	
5190	0	32864	
5191	0	32738	
5192	0	32552	
5193	0	32425	
5194	0	32384	
5195	0	32304	
5196	0	32060	
5197	0	31832	
5198	0	31700	
5199	0	31596	
5200	0	31504	
5201	0	31304	
5202	0	31048	
5203	0	30764	
5204	0	30504	
5205	0	30300	
5206	0	30160	
5207	0	30064	
5208	0	29976	
5209	0	29914	
5210	0	29848	
5211	0	29800	
5212	0	29820	
5213	0	29868	
5214	0	29964	
5215	0	30008	
5216	0	29912	
5217	0	29800	
5218	0	29712	
5219	0	29656	
5220	0	29668	
5221	0	29640	
5222	0	29652	
5223	0	29642	
5224	0	29624	
5225	0	29568	
5226	0	29532	
5227	0	29472	
5228	0	29376	
5229	0	29294	
5230	0	29188	
5231	0	29024	
5232	0	28816	
5233	0	28572	
5234	0	28288	
5235	0	28000	
5236	0	27752	
5237	0	27584	
5238	0	27432	
5239	0	27240	
5240	0	27024	
5241	0	26824	
5242	0	26680	
5243	0	26648	
5244	0	26768	
5245	0	26952	
5246	0	27220	
5247	0	27536	
5248	0	27832	
5249	0	28156	
5250	0	28456	
5251	0	28768	
5252	0	29084	
5253	0	29344	
5254	0	29680	
5255	0	30024	
5256	0	30261	
5257	0	30432	
5258	0	30660	
5259	0	30856	
5260	0	31008	
5261	0	31064	
5262	0	31132	
5263	0	31244	
5264	0	31312	
5265	0	31444	
5266	0	31704	
5267	0	32016	
5268	0	32256	
5269	0	32360	
5270	0	32304	
5271	0	32208	
5272	0	32256	
5273	0	32410	
5274	0	32570	
5275	0	32592	
5276	0	32572	
5277	0	32622	
5278	0	32776	
5279	0	32944	
5280	0	33184	
5281	0	33456	
5282	0	33648	
5283	0	33744	
5284	0	33792	
5285	0	33824	
5286	0	33904	
5287	0	34040	
5288	0	34192	
5289	0	34372	
5290	0	34456	
5291	0	34488	
5292	0	34552	
5293	0	34650	
5294	0	34736	
5295	0	34732	
5296	0	34664	
5297	0	34580	
5298	0	34492	
5299	0	34476	
5300	0	34468	
5301	0	34468	
5302	0	34484	
5303	0	34428	
5304	0	34416	
5305	0	34432	
5306	0	34384	
5307	0	34332	
5308	0	34304	
5309	0	34298	
5310	0	34256	
5311	0	34192	
5312	0	34112	
5313	0	34064	
5314	0	34064	
5315	0	34048	
5316	0	34008	
5317	0	33922	
5318	0	33888	
5319	0	33884	
5320	0	33860	
5321	0	33872	
5322	0	33924	
5323	0	33932	
5324	0	33904	
5325	0	33840	
5326	0	33748	
5327	0	33632	
5328	0	33508	
5329	0	33484	
5330	0	33712	
5331	0	34012	
5332	0	34368	
5333	0	34728	
5334	0	34964	
5335	0	35164	
5336	0	35464	
5337	0	35712	
5338	0	35760	
5339	0	35588	
5340	0	35240	
5341	0	34772	
5342	0	34124	
5343	0	33400	
5344	0	32540	
5345	0	31404	
5346	0	30168	
5347	0	28852	
5348	0	27313	
5349	0	25680	
5350	0	23968	
5351	0	22132	
5352	0	20180	
5353	0	18218	
5354	0	16136	
5355	0	13993	
5356	0	11800	
5357	0	9486	
5358	0	7116	
5359	0	4861	
5360	0	2904	
5361	0	1608	
5362	0	1154	
5363	0	1255	
5364	0	2204	
5365	0	3881	
5366	0	6692	
5367	0	10984	
5368	0	15850	
5369	0	20200	
5370	0	23857	
5371	0	27152	
5372	0	30608	
5373	0	34240	
5374	0	38068	
5375	0	41656	
5376	0	44688	
5377	0	47128	
5378	0	49180	
5379	0	50968	
5380	0	52416	
5381	0	53364	
5382	0	53752	
5383	0	53524	
5384	0	53132	
5385	0	52560	
5386	0	51876	
5387	0	51024	
5388	0	49670	
5389	0	47880	
5390	0	45988	
5391	0	44216	
5392	0	42576	
5393	0	41220	
5394	0	40144	
5395	0	39236	
5396	0	38472	
5397	0	37808	
5398	0	37212	
5399	0	36632	
5400	0	36128	
5401	0	35552	
5402	0	34976	
5403	0	34516	
5404	0	34212	
5405	0	34052	
5406	0	33948	
5407	0	33880	
5408	0	33802	
5409	0	33724	
5410	0	33632	
5411	0	33496	
5412	0	33432	
5413	0	33434	
5414	0	33392	
5415	0	33360	
5416	0	33288	
5417	0	33192	
5418	0	33188	
5419	0	33268	
5420	0	33300	
5421	0	33212	
5422	0	33096	
5423	0	33004	
5424	0	32912	
5425	0	32848	
5426	0	32776	
5427	0	32676	
5428	0	32552	
5429	0	32364	
5430	0	32320	
5431	0	32354	
5432	0	32404	
5433	0	32432	
5434	0	32492	
5435	0	32508	
5436	0	32516	
5437	0	32490	
5438	0	32448	
5439	0	32444	
5440	0	32448	
5441	0	32392	
5442	0	32296	
5443	0	32244	
5444	0	32192	
5445	0	32152	
5446	0	32108	
5447	0	32072	
5448	0	32016	
5449	0	31936	
5450	0	31892	
5451	0	31808	
5452	0	31696	
5453	0	31630	
5454	0	31592	
5455	0	31564	
5456	0	31560	
5457	0	31512	
5458	0	31464	
5459	0	31500	
5460	0	31596	
5461	0	31616	
5462	0	31592	
5463	0	31498	
5464	0	31392	
5465	0	31388	
5466	0	31356	
5467	0	31348	
5468	0	31320	
5469	0	31216	
5470	0	31190	
5471	0	31272	
5472	0	31248	
5473	0	31188	
5474	0	31240	
5475	0	31272	
5476	0	31152	
5477	0	31004	
5478	0	30984	
5479	0	31012	
5480	0	31024	
5481	0	30992	
5482	0	30924	
5483	0	30844	
5484	0	30768	
5485	0	30720	
5486	0	30680	
5487	0	30664	
5488	0	30608	
5489	0	30544	
5490	0	30540	
5491	0	30620	
5492	0	30664	
5493	0	30636	
5494	0	30600	
5495	0	30564	
5496	0	30476	
5497	0	30272	
5498	0	30124	
5499	0	30100	
5500	0	30120	
5501	0	30004	
5502	0	29904	
5503	0	29882	
5504	0	29904	
5505	0	29988	
5506	0	30056	
5507	0	30068	
5508	0	30060	
5509	0	30212	
5510	0	30376	
5511	0	30444	
5512	0	30392	
5513	0	30264	
5514	0	30108	
5515	0	29880	
5516	0	29760	
5517	0	29724	
5518	0	29640	
5519	0	29548	
5520	0	29476	
5521	0	29456	
5522	0	29460	
5523	0	29520	
5524	0	29612	
5525	0	29684	
5526	0	29716	
5527	0	29704	
5528	0	29748	
5529	0	29864	
5530	0	29868	
5531	0	29804	
5532	0	29708	
5533	0	29688	
5534	0	29788	
5535	0	29856	
5536	0	29876	
5537	0	29832	
5538	0	29852	
5539	0	29882	
5540	0	29916	
5541	0	29872	
5542	0	29780	
5543	0	29692	
5544	0	29700	
5545	0	29772	
5546	0	29904	
5547	0	30000	
5548	0	30080	
5549	0	30212	
5550	0	30344	
5551	0	30328	
5552	0	30298	
5553	0	30368	
5554	0	30454	
5555	0	30496	
5556	0	30552	
5557	0	30640	
5558	0	30668	
5559	0	30640	
5560	0	30590	
5561	0	30574	
5562	0	30568	
5563	0	30580	
5564	0	30544	
5565	0	30492	
5566	0	30452	
5567	0	30496	
5568	0	30600	
5569	0	30676	
5570	0	30746	
5571	0	30868	
5572	0	31016	
5573	0	31064	
5574	0	31076	
5575	0	31048	
5576	0	30968	
5577	0	30864	
5578	0	30712	
5579	0	30680	
5580	0	30740	
5581	0	30836	
5582	0	30928	
5583	0	30996	
5584	0	30976	
5585	0	30946	
5586	0	31084	
5587	0	31294	
5588	0	31384	
5589	0	31348	
5590	0	31284	
5591	0	31232	
5592	0	31208	
5593	0	31192	
5594	0	31172	
5595	0	31158	
5596	0	31057	
5597	0	30900	
5598	0	30768	
5599	0	30712	
5600	0	30752	
5601	0	30872	
5602	0	30912	
5603	0	30900	
5604	0	30952	
5605	0	30980	
5606	0	30976	
5607	0	30920	
5608	0	30852	
5609	0	30852	
5610	0	30928	
5611	0	31024	
5612	0	31124	
5613	0	31252	
5614	0	31368	
5615	0	31468	
5616	0	31576	
5617	0	31604	
5618	0	31592	
5619	0	31572	
5620	0	31604	
5621	0	31768	
5622	0	31928	
5623	0	32096	
5624	0	32236	
5625	0	32284	
5626	0	32256	
5627	0	32220	
5628	0	32206	
5629	0	32232	
5630	0	32312	
5631	0	32368	
5632	0	32492	
5633	0	32612	
5634	0	32724	
5635	0	32784	
5636	0	32852	
5637	0	32892	
5638	0	32844	
5639	0	32792	
5640	0	32794	
5641	0	32796	
5642	0	32884	
5643	0	32940	
5644	0	33048	
5645	0	33120	
5646	0	33140	
5647	0	33160	
5648	0	33124	
5649	0	33184	
5650	0	33310	
5651	0	33424	
5652	0	33480	
5653	0	33432	
5654	0	33400	
5655	0	33352	
5656	0	33376	
5657	0	33408	
5658	0	33416	
5659	0	33416	
5660	0	33404	
5661	0	33356	
5662	0	33360	
5663	0	33396	
5664	0	33356	
5665	0	33264	
5666	0	33208	
5667	0	33228	
5668	0	33296	
5669	0	33344	
5670	0	33376	
5671	0	33376	
5672	0	33384	
5673	0	33352	
5674	0	33306	
5675	0	33320	
5676	0	33344	
5677	0	33340	
5678	0	33336	
5679	0	33324	
5680	0	33188	
5681	0	33040	
5682	0	32996	
5683	0	32912	
5684	0	32824	
5685	0	32772	
5686	0	32860	
5687	0	33064	
5688	0	33364	
5689	0	33560	
5690	0	33576	
5691	0	33464	
5692	0	33292	
5693	0	33184	
5694	0	33132	
5695	0	33112	
5696	0	33104	
5697	0	33092	
5698	0	33024	
5699	0	32964	
5700	0	32920	
5701	0	32900	
5702	0	32912	
5703	0	32980	
5704	0	32992	
5705	0	32936	
5706	0	32912	
5707	0	33016	
5708	0	33052	
5709	0	32992	
5710	0	32916	
5711	0	32896	
5712	0	32892	
5713	0	32944	
5714	0	33002	
5715	0	33004	
5716	0	32944	
5717	0	32933	
5718	0	32900	
5719	0	32888	
5720	0	32844	
5721	0	32724	
5722	0	32720	
5723	0	32724	
5724	0	32676	
5725	0	32696	
5726	0	32780	
5727	0	32888	
5728	0	32958	
5729	0	33020	
5730	0	33016	
5731	0	32942	
5732	0	32844	
5733	0	32844	
5734	0	32840	
5735	0	32796	
5736	0	32732	
5737	0	32696	
5738	0	32748	
5739	0	32852	
5740	0	32902	
5741	0	32968	
5742	0	32920	
5743	0	32884	
5744	0	32904	
5745	0	32984	
5746	0	33028	
5747	0	33040	
5748	0	32968	
5749	0	32940	
5750	0	32936	
5751	0	32996	
5752	0	33008	
5753	0	33084	
5754	0	33245	
5755	0	33352	
5756	0	33404	
5757	0	33440	
5758	0	33404	
5759	0	33408	
5760	0	33436	
5761	0	33380	
5762	0	33240	
5763	0	33180	
5764	0	33152	
5765	0	33104	
5766	0	33088	
5767	0	33074	
5768	0	33056	
5769	0	33089	
5770	0	33124	
5771	0	33088	
5772	0	33096	
5773	0	33076	
5774	0	33018	
5775	0	33088	
5776	0	33176	
5777	0	33096	
5778	0	33026	
5779	0	33000	
5780	0	33032	
5781	0	33100	
5782	0	33176	
5783	0	33192	
5784	0	33204	
5785	0	33216	
5786	0	33264	
5787	0	33240	
5788	0	33232	
5789	0	33240	
5790	0	33169	
5791	0	33216	
5792	0	33280	
5793	0	33328	
5794	0	33340	
5795	0	33356	
5796	0	33396	
5797	0	33416	
5798	0	33312	
5799	0	33132	
5800	0	32980	
5801	0	32928	
5802	0	32908	
5803	0	32972	
5804	0	33100	
5805	0	33180	
5806	0	33148	
5807	0	33168	
5808	0	33208	
5809	0	33196	
5810	0	33168	
5811	0	33216	
5812	0	33272	
5813	0	33280	
5814	0	33252	
5815	0	33268	
5816	0	33292	
5817	0	33312	
5818	0	33324	
5819	0	33336	
5820	0	33316	
5821	0	33272	
5822	0	33224	
5823	0	33188	
5824	0	33156	
5825	0	33192	
5826	0	33194	
5827	0	33228	
5828	0	33276	
5829	0	33368	
5830	0	33512	
5831	0	33600	
5832	0	33544	
5833	0	33468	
5834	0	33412	
5835	0	33364	
5836	0	33313	
5837	0	33228	
5838	0	33168	
5839	0	33132	
5840	0	33109	
5841	0	33096	
5842	0	33168	
5843	0	33284	
5844	0	33376	
5845	0	33328	
5846	0	33216	
5847	0	33194	
5848	0	33232	
5849	0	33244	
5850	0	33194	
5851	0	33140	
5852	0	33024	
5853	0	32932	
5854	0	32932	
5855	0	32916	
5856	0	32952	
5857	0	32940	
5858	0	32976	
5859	0	33096	
5860	0	33160	
5861	0	33156	
5862	0	33112	
5863	0	33144	
5864	0	33172	
5865	0	33184	
5866	0	33184	
5867	0	33256	
5868	0	33280	
5869	0	33288	
5870	0	33324	
5871	0	33388	
5872	0	33408	
5873	0	33444	
5874	0	33488	
5875	0	33484	
5876	0	33458	
5877	0	33492	
5878	0	33484	
5879	0	33416	
5880	0	33384	
5881	0	33444	
5882	0	33472	
5883	0	33420	
5884	0	33336	
5885	0	33240	
5886	0	33220	
5887	0	33312	
5888	0	33336	
5889	0	33284	
5890	0	33304	
5891	0	33384	
5892	0	33472	
5893	0	33444	
5894	0	33308	
5895	0	33122	
5896	0	32890	
5897	0	32616	
5898	0	32392	
5899	0	32292	
5900	0	32072	
5901	0	31768	
5902	0	31476	
5903	0	31204	
5904	0	30900	
5905	0	30672	
5906	0	30570	
5907	0	30540	
5908	0	30564	
5909	0	30506	
5910	0	30549	
5911	0	30776	
5912	0	30852	
5913	0	30716	
5914	0	30552	
5915	0	30416	
5916	0	30314	
5917	0	30293	
5918	0	30332	
5919	0	30480	
5920	0	30632	
5921	0	30500	
5922	0	30320	
5923	0	30290	
5924	0	30280	
5925	0	30208	
5926	0	30068	
5927	0	29916	
5928	0	29660	
5929	0	29288	
5930	0	28956	
5931	0	28576	
5932	0	28214	
5933	0	27920	
5934	0	27700	
5935	0	27480	
5936	0	27324	
5937	0	27160	
5938	0	27016	
5939	0	27040	
5940	0	27200	
5941	0	27456	
5942	0	27736	
5943	0	28020	
5944	0	28372	
5945	0	28688	
5946	0	29024	
5947	0	29368	
5948	0	29696	
5949	0	30052	
5950	0	30404	
5951	0	30776	
5952	0	31162	
5953	0	31384	
5954	0	31452	
5955	0	31520	
5956	0	31616	
5957	0	31728	
5958	0	31776	
5959	0	31660	
5960	0	31700	
5961	0	31868	
5962	0	32100	
5963	0	32392	
5964	0	32584	
5965	0	32680	
5966	0	32744	
5967	0	32708	
5968	0	32698	
5969	0	32741	
5970	0	32780	
5971	0	32908	
5972	0	33136	
5973	0	33460	
5974	0	33840	
5975	0	34128	
5976	0	34256	
5977	0	34284	
5978	0	34332	
5979	0	34420	
5980	0	34488	
5981	0	34664	
5982	0	34816	
5983	0	34908	
5984	0	35012	
5985	0	35120	
5986	0	35320	
5987	0	35532	
5988	0	35518	
5989	0	35544	
5990	0	35572	
5991	0	35576	
5992	0	35592	
5993	0	35640	
5994	0	35704	
5995	0	35660	
5996	0	35616	
5997	0	35584	
5998	0	35520	
5999	0	35376	
6000	0	35252	
6001	0	35200	
6002	0	35140	
6003	0	35080	
6004	0	35032	
6005	0	34976	
6006	0	34988	
6007	0	35080	
6008	0	35068	
6009	0	34932	
6010	0	34736	
6011	0	34604	
6012	0	34532	
6013	0	34500	
6014	0	34610	
6015	0	34696	
6016	0	34574	
6017	0	34460	
6018	0	34520	
6019	0	34624	
6020	0	34696	
6021	0	34712	
6022	0	34624	
6023	0	34524	
6024	0	34512	
6025	0	34544	
6026	0	34556	
6027	0	34720	
6028	0	35004	
6029	0	35172	
6030	0	35320	
6031	0	35480	
6032	0	35620	
6033	0	35820	
6034	0	35980	
6035	0	36056	
6036	0	36032	
6037	0	35916	
6038	0	35584	
6039	0	34984	
6040	0	34124	
6041	0	33080	
6042	0	31704	
6043	0	30304	
6044	0	28832	
6045	0	27116	
6046	0	25284	
6047	0	23484	
6048	0	21548	
6049	0	19392	
6050	0	17088	
6051	0	14674	
6052	0	12228	
6053	0	9980	
6054	0	7800	
6055	0	5558	
6056	0	3461	
6057	0	1788	
6058	0	990	
6059	0	642	
6060	0	526	
6061	0	530	
6062	0	2707	
6063	0	5582	
6064	0	9684	
6065	0	14410	
6066	0	18584	
6067	0	22000	
6068	0	25070	
6069	0	28404	
6070	0	32128	
6071	0	36292	
6072	0	40748	
6073	0	44816	
6074	0	47968	
6075	0	50332	
6076	0	52324	
6077	0	53864	
6078	0	54760	
6079	0	55120	
6080	0	55000	
6081	0	54648	
6082	0	53904	
6083	0	52744	
6084	0	51248	
6085	0	49668	
6086	0	47964	
6087	0	46192	
6088	0	44472	
6089	0	42948	
6090	0	41712	
6091	0	40784	
6092	0	40100	
6093	0	39488	
6094	0	38832	
6095	0	38172	
6096	0	37624	
6097	0	37072	
6098	0	36632	
6099	0	36228	
6100	0	35912	
6101	0	35688	
6102	0	35517	
6103	0	35404	
6104	0	35320	
6105	0	35232	
6106	0	35188	
6107	0	35104	
6108	0	35020	
6109	0	35024	
6110	0	35030	
6111	0	34800	
6112	0	34600	
6113	0	34524	
6114	0	34518	
6115	0	34536	
6116	0	34584	
6117	0	34644	
6118	0	34608	
6119	0	34568	
6120	0	34514	
6121	0	34512	
6122	0	34568	
6123	0	34592	
6124	0	34616	
6125	0	34644	
6126	0	34592	
6127	0	34528	
6128	0	34416	
6129	0	34320	
6130	0	34310	
6131	0	34244	
6132	0	34156	
6133	0	34096	
6134	0	34168	
6135	0	34280	
6136	0	34364	
6137	0	34384	
6138	0	34301	
6139	0	34128	
6140	0	34032	
6141	0	33984	
6142	0	33920	
6143	0	33776	
6144	0	33680	
6145	0	33644	
6146	0	33628	
6147	0	33588	
6148	0	33592	
6149	0	33524	
6150	0	33470	
6151	0	33440	
6152	0	33421	
6153	0	33356	
6154	0	33236	
6155	0	33240	
6156	0	33216	
6157	0	33184	
6158	0	33136	
6159	0	33144	
6160	0	33192	
6161	0	33252	
6162	0	33216	
6163	0	33052	
6164	0	32860	
6165	0	32792	
6166	0	32740	
6167	0	32600	
6168	0	32536	
6169	0	32544	
6170	0	32496	
6171	0	32472	
6172	0	32436	
6173	0	32404	
6174	0	32372	
6175	0	32412	
6176	0	32464	
6177	0	32484	
6178	0	32540	
6179	0	32608	
6180	0	32660	
6181	0	32684	
6182	0	32700	
6183	0	32656	
6184	0	32624	
6185	0	32584	
6186	0	32552	
6187	0	32480	
6188	0	32304	
6189	0	32164	
6190	0	31996	
6191	0	31816	
6192	0	31708	
6193	0	31616	
6194	0	31592	
6195	0	31572	
6196	0	31632	
6197	0	31712	
6198	0	31780	
6199	0	31792	
6200	0	31716	
6201	0	31696	
6202	0	31665	
6203	0	31656	
6204	0	31604	
6205	0	31616	
6206	0	31580	
6207	0	31560	
6208	0	31548	
6209	0	31528	
6210	0	31480	
6211	0	31382	
6212	0	31286	
6213	0	31292	
6214	0	31328	
6215	0	31376	
6216	0	31452	
6217	0	31432	
6218	0	31392	
6219	0	31352	
6220	0	31312	
6221	0	31208	
6222	0	31144	
6223	0	31128	
6224	0	31184	
6225	0	31192	
6226	0	31176	
6227	0	31128	
6228	0	31072	
6229	0	31024	
6230	0	30940	
6231	0	30996	
6232	0	31064	
6233	0	31072	
6234	0	31128	
6235	0	31192	
6236	0	31228	
6237	0	31252	
6238	0	31180	
6239	0	31128	
6240	0	31088	
6241	0	31066	
6242	0	31088	
6243	0	31132	
6244	0	31060	
6245	0	31068	
6246	0	31136	
6247	0	31192	
6248	0	31254	
6249	0	31348	
6250	0	31444	
6251	0	31528	
6252	0	31604	
6253	0	31652	
6254	0	31688	
6255	0	31688	
6256	0	31688	
6257	0	31712	
6258	0	31860	
6259	0	31932	
6260	0	31912	
6261	0	31952	
6262	0	31936	
6263	0	31892	
6264	0	31896	
6265	0	31844	
6266	0	31828	
6267	0	31952	
6268	0	32104	
6269	0	32212	
6270	0	32300	
6271	0	32384	
6272	0	32528	
6273	0	32576	
6274	0	32532	
6275	0	32544	
6276	0	32576	
6277	0	32580	
6278	0	32540	
6279	0	32576	
6280	0	32592	
6281	0	32440	
6282	0	32296	
6283	0	32216	
6284	0	32288	
6285	0	32458	
6286	0	32504	
6287	0	32468	
6288	0	32476	
6289	0	32592	
6290	0	32540	
6291	0	32384	
6292	0	32252	
6293	0	32160	
6294	0	32084	
6295	0	32012	
6296	0	31960	
6297	0	31876	
6298	0	31784	
6299	0	31648	
6300	0	31528	
6301	0	31564	
6302	0	31664	
6303	0	31746	
6304	0	31864	
6305	0	31856	
6306	0	31808	
6307	0	31788	
6308	0	31816	
6309	0	31914	
6310	0	32064	
6311	0	32096	
6312	0	32172	
6313	0	32260	
6314	0	32412	
6315	0	32464	
6316	0	32424	
6317	0	32448	
6318	0	32580	
6319	0	32760	
6320	0	32952	
6321	0	33024	
6322	0	32912	
6323	0	32876	
6324	0	32980	
6325	0	33036	
6326	0	33028	
6327	0	33088	
6328	0	33156	
6329	0	33140	
6330	0	33108	
6331	0	33140	
6332	0	33160	
6333	0	33224	
6334	0	33216	
6335	0	33140	
6336	0	33112	
6337	0	33176	
6338	0	33380	
6339	0	33568	
6340	0	33680	
6341	0	33828	
6342	0	33968	
6343	0	33932	
6344	0	33880	
6345	0	33848	
6346	0	33932	
6347	0	34000	
6348	0	33984	
6349	0	33960	
6350	0	33936	
6351	0	33844	
6352	0	33656	
6353	0	33680	
6354	0	33864	
6355	0	33804	
6356	0	33760	
6357	0	33798	
6358	0	33880	
6359	0	33948	
6360	0	33872	
6361	0	33788	
6362	0	33600	
6363	0	33480	
6364	0	33496	
6365	0	33528	
6366	0	33568	
6367	0	33748	
6368	0	34040	
6369	0	34264	
6370	0	34156	
6371	0	33818	
6372	0	33688	
6373	0	33752	
6374	0	33852	
6375	0	33860	
6376	0	33952	
6377	0	33968	
6378	0	33928	
6379	0	33876	
6380	0	33924	
6381	0	34016	
6382	0	33996	
6383	0	33892	
6384	0	33744	
6385	0	33604	
6386	0	33548	
6387	0	33524	
6388	0	33664	
6389	0	33700	
6390	0	33712	
6391	0	33704	
6392	0	33528	
6393	0	33564	
6394	0	33512	
6395	0	33320	
6396	0	33218	
6397	0	33372	
6398	0	33696	
6399	0	33408	
6400	0	33056	
6401	0	32889	
6402	0	32884	
6403	0	33068	
6404	0	33160	
6405	0	33104	
6406	0	33092	
6407	0	33112	
6408	0	33318	
6409	0	33628	
6410	0	33580	
6411	0	33528	
6412	0	33580	
6413	0	33568	
6414	0	33656	
6415	0	33604	
6416	0	33428	
6417	0	33260	
6418	0	33096	
6419	0	32960	
6420	0	32956	
6421	0	33048	
6422	0	33188	
6423	0	33312	
6424	0	33376	
6425	0	33476	
6426	0	33512	
6427	0	33432	
6428	0	33408	
6429	0	33436	
6430	0	33584	
6431	0	33616	
6432	0	33716	
6433	0	33704	
6434	0	33628	
6435	0	33716	
6436	0	33584	
6437	0	33308	
6438	0	33156	
6439	0	33084	
6440	0	33004	
6441	0	32844	
6442	0	32856	
6443	0	32984	
6444	0	33064	
6445	0	33168	
6446	0	33252	
6447	0	33352	
6448	0	33404	
6449	0	33312	
6450	0	33444	
6451	0	33492	
6452	0	33416	
6453	0	33288	
6454	0	33356	
6455	0	33344	
6456	0	33244	
6457	0	33220	
6458	0	33232	
6459	0	33180	
6460	0	33189	
6461	0	33288	
6462	0	33448	
6463	0	33492	
6464	0	33424	
6465	0	33380	
6466	0	33364	
6467	0	33388	
6468	0	33372	
6469	0	33268	
6470	0	33180	
6471	0	33088	
6472	0	33096	
6473	0	33256	
6474	0	33456	
6475	0	33464	
6476	0	33348	
6477	0	33302	
6478	0	33396	
6479	0	33488	
6480	0	33500	
6481	0	33512	
6482	0	33608	
6483	0	33520	
6484	0	33556	
6485	0	33716	
6486	0	33780	
6487	0	33760	
6488	0	33740	
6489	0	33696	
6490	0	33684	
6491	0	33692	
6492	0	33764	
6493	0	33732	
6494	0	33648	
6495	0	33648	
6496	0	33644	
6497	0	33708	
6498	0	33824	
6499	0	33884	
6500	0	33952	
6501	0	33964	
6502	0	33960	
6503	0	34032	
6504	0	34000	
6505	0	33928	
6506	0	33908	
6507	0	33834	
6508	0	33816	
6509	0	33744	
6510	0	33668	
6511	0	33620	
6512	0	33628	
6513	0	33672	
6514	0	33618	
6515	0	33524	
6516	0	33532	
6517	0	33544	
6518	0	33624	
6519	0	33752	
6520	0	33836	
6521	0	33832	
6522	0	33728	
6523	0	33608	
6524	0	33476	
6525	0	33400	
6526	0	33428	
6527	0	33520	
6528	0	33544	
6529	0	33544	
6530	0	33812	
6531	0	33848	
6532	0	33744	
6533	0	33688	
6534	0	33748	
6535	0	33840	
6536	0	33920	
6537	0	33936	
6538	0	33980	
6539	0	33916	
6540	0	33820	
6541	0	33684	
6542	0	33652	
6543	0	33808	
6544	0	33952	
6545	0	33832	
6546	0	33772	
6547	0	33840	
6548	0	33952	
6549	0	33848	
6550	0	33680	
6551	0	33668	
6552	0	33760	
6553	0	33940	
6554	0	33992	
6555	0	34048	
6556	0	34032	
6557	0	34032	
6558	0	34000	
6559	0	33920	
6560	0	33888	
6561	0	33888	
6562	0	33772	
6563	0	33620	
6564	0	33464	
6565	0	33404	
6566	0	33536	
6567	0	33628	
6568	0	33710	
6569	0	33816	
6570	0	33832	
6571	0	33856	
6572	0	33920	
6573	0	33964	
6574	0	33840	
6575	0	33728	
6576	0	33692	
6577	0	33680	
6578	0	33592	
6579	0	33624	
6580	0	33624	
6581	0	33536	
6582	0	33472	
6583	0	33420	
6584	0	33356	
6585	0	33316	
6586	0	33344	
6587	0	33304	
6588	0	33256	
6589	0	33288	
6590	0	33356	
6591	0	33400	
6592	0	33396	
6593	0	33352	
6594	0	33420	
6595	0	33504	
6596	0	33436	
6597	0	33444	
6598	0	33488	
6599	0	33448	
6600	0	33412	
6601	0	33440	
6602	0	33476	
6603	0	33520	
6604	0	33520	
6605	0	33532	
6606	0	33572	
6607	0	33636	
6608	0	33652	
6609	0	33672	
6610	0	33740	
6611	0	33764	
6612	0	33792	
6613	0	33864	
6614	0	33800	
6615	0	33712	
6616	0	33656	
6617	0	33612	
6618	0	33472	
6619	0	33380	
6620	0	33241	
6621	0	33136	
6622	0	33112	
6623	0	33154	
6624	0	33184	
6625	0	33164	
6626	0	33116	
6627	0	33140	
6628	0	33264	
6629	0	33372	
6630	0	33336	
6631	0	33312	
6632	0	33284	
6633	0	33192	
6634	0	33040	
6635	0	32864	
6636	0	32500	
6637	0	32064	
6638	0	31692	
6639	0	31372	
6640	0	31088	
6641	0	30892	
6642	0	30748	
6643	0	30752	
6644	0	30684	
6645	0	30616	
6646	0	30584	
6647	0	30680	
6648	0	30696	
6649	0	30592	
6650	0	30448	
6651	0	30376	
6652	0	30376	
6653	0	30408	
6654	0	30432	
6655	0	30488	
6656	0	30428	
6657	0	30264	
6658	0	30068	
6659	0	29968	
6660	0	29932	
6661	0	29904	
6662	0	29872	
6663	0	29824	
6664	0	29628	
6665	0	29352	
6666	0	29000	
6667	0	28768	
6668	0	28584	
6669	0	28208	
6670	0	28068	
6671	0	27968	
6672	0	27724	
6673	0	27545	
6674	0	27356	
6675	0	27232	
6676	0	27296	
6677	0	27516	
6678	0	27808	
6679	0	28172	
6680	0	28456	
6681	0	28772	
6682	0	29114	
6683	0	29428	
6684	0	29656	
6685	0	29880	
6686	0	30132	
6687	0	30464	
6688	0	30792	
6689	0	30936	
6690	0	31106	
6691	0	31416	
6692	0	31708	
6693	0	31932	
6694	0	32132	
6695	0	32168	
6696	0	32192	
6697	0	32156	
6698	0	32092	
6699	0	32164	
6700	0	32396	
6701	0	32608	
6702	0	32800	
6703	0	32924	
6704	0	33108	
6705	0	33032	
6706	0	32840	
6707	0	32940	
6708	0	33212	
6709	0	33384	
6710	0	33492	
6711	0	33768	
6712	0	34160	
6713	0	34424	
6714	0	34432	
6715	0	34428	
6716	0	34428	
6717	0	34460	
6718	0	34540	
6719	0	34576	
6720	0	34744	
6721	0	34924	
6722	0	35012	
6723	0	35052	
6724	0	35112	
6725	0	35144	
6726	0	35104	
6727	0	35088	
6728	0	35080	
6729	0	35056	
6730	0	35084	
6731	0	35136	
6732	0	35164	
6733	0	35112	
6734	0	35060	
6735	0	35024	
6736	0	35032	
6737	0	34992	
6738	0	34976	
6739	0	34920	
6740	0	34856	
6741	0	34848	
6742	0	34872	
6743	0	34832	
6744	0	34748	
6745	0	34728	
6746	0	34720	
6747	0	34652	
6748	0	34650	
6749	0	34624	
6750	0	34634	
6751	0	34644	
6752	0	34704	
6753	0	34804	
6754	0	34816	
6755	0	34724	
6756	0	34584	
6757	0	34416	
6758	0	34232	
6759	0	34140	
6760	0	34176	
6761	0	34284	
6762	0	34372	
6763	0	34492	
6764	0	34700	
6765	0	34924	
6766	0	35060	
6767	0	35264	
6768	0	35640	
6769	0	35908	
6770	0	35872	
6771	0	35816	
6772	0	35656	
6773	0	35308	
6774	0	34784	
6775	0	34088	
6776	0	33100	
6777	0	31832	
6778	0	30496	
6779	0	29060	
6780	0	27424	
6781	0	25760	
6782	0	24000	
6783	0	22120	
6784	0	20060	
6785	0	17984	
6786	0	15961	
6787	0	13746	
6788	0	11448	
6789	0	9254	
6790	0	6862	
6791	0	4575	
6792	0	2572	
6793	0	1354	
6794	0	790	
6795	0	572	
6796	0	1002	
6797	0	2632	
6798	0	5028	
6799	0	8758	
6800	0	13420	
6801	0	17602	
6802	0	21068	
6803	0	24152	
6804	0	27268	
6805	0	30664	
6806	0	34468	
6807	0	38688	
6808	0	42728	
6809	0	46008	
6810	0	48440	
6811	0	50404	
6812	0	51968	
6813	0	53168	
6814	0	53824	
6815	0	53764	
6816	0	53344	
6817	0	52768	
6818	0	51904	
6819	0	50712	
6820	0	49100	
6821	0	47360	
6822	0	45616	
6823	0	43892	
6824	0	42304	
6825	0	41048	
6826	0	40136	
6827	0	39484	
6828	0	38920	
6829	0	38328	
6830	0	37744	
6831	0	37256	
6832	0	36860	
6833	0	36600	
6834	0	36362	
6835	0	36104	
6836	0	35840	
6837	0	35652	
6838	0	35684	
6839	0	35666	
6840	0	35600	
6841	0	35584	
6842	0	35584	
6843	0	35620	
6844	0	35540	
6845	0	35456	
6846	0	35420	
6847	0	35344	
6848	0	35240	
6849	0	35180	
6850	0	35236	
6851	0	35304	
6852	0	35228	
6853	0	35132	
6854	0	35008	
6855	0	34992	
6856	0	34952	
6857	0	34984	
6858	0	34972	
6859	0	34912	
6860	0	34788	
6861	0	34680	
6862	0	34636	
6863	0	34756	
6864	0	34896	
6865	0	34924	
6866	0	34884	
6867	0	34964	
6868	0	35136	
6869	0	35380	
6870	0	35624	
6871	0	35720	
6872	0	35636	
6873	0	35502	
6874	0	35564	
6875	0	35708	
6876	0	35780	
6877	0	35888	
6878	0	35936	
6879	0	35756	
6880	0	35418	
6881	0	35056	
6882	0	34692	
6883	0	34288	
6884	0	33828	
6885	0	33424	
6886	0	33092	
6887	0	33040	
6888	0	33164	
6889	0	33304	
6890	0	33144	
6891	0	33017	
6892	0	33106	
6893	0	33272	
6894	0	33424	
6895	0	33416	
6896	0	33358	
6897	0	33264	
6898	0	33144	
6899	0	33020	
6900	0	32962	
6901	0	32904	
6902	0	32880	
6903	0	32852	
6904	0	32880	
6905	0	32914	
6906	0	32984	
6907	0	32925	
6908	0	32784	
6909	0	32554	
6910	0	32446	
6911	0	32382	
6912	0	32452	
6913	0	32640	
6914	0	32724	
6915	0	32616	
6916	0	32400	
6917	0	32172	
6918	0	31996	
6919	0	31992	
6920	0	32060	
6921	0	31976	
6922	0	31824	
6923	0	31696	
6924	0	31648	
6925	0	31744	
6926	0	31832	
6927	0	31896	
6928	0	31852	
6929	0	31720	
6930	0	31656	
6931	0	31748	
6932	0	31860	
6933	0	31928	
6934	0	31972	
6935	0	31944	
6936	0	31856	
6937	0	31800	
6938	0	31752	
6939	0	31764	
6940	0	31772	
6941	0	31672	
6942	0	31596	
6943	0	31396	
6944	0	31260	
6945	0	31336	
6946	0	31524	
6947	0	31604	
6948	0	31584	
6949	0	31614	
6950	0	31668	
6951	0	31852	
6952	0	31924	
6953	0	31888	
6954	0	31840	
6955	0	31760	
6956	0	31612	
6957	0	31412	
6958	0	31288	
6959	0	31257	
6960	0	31208	
6961	0	31160	
6962	0	31200	
6963	0	31186	
6964	0	31200	
6965	0	31260	
6966	0	31188	
6967	0	31204	
6968	0	31292	
6969	0	31464	
6970	0	31696	
6971	0	31796	
6972	0	31876	
6973	0	31932	
6974	0	32050	
6975	0	31880	
6976	0	31490	
6977	0	31296	
6978	0	31232	
6979	0	31288	
6980	0	31456	
6981	0	31656	
6982	0	31732	
6983	0	31680	
6984	0	31676	
6985	0	31760	
6986	0	31832	
6987	0	32112	
6988	0	32256	
6989	0	31920	
6990	0	31812	
6991	0	31841	
6992	0	31976	
6993	0	32408	
6994	0	32440	
6995	0	32492	
6996	0	32684	
6997	0	32644	
6998	0	32540	
6999	0	32472	
7000	0	32468	
7001	0	32392	
7002	0	32328	
7003	0	32330	
7004	0	32352	
7005	0	32356	
7006	0	32380	
7007	0	32436	
7008	0	32480	
7009	0	32428	
7010	0	32424	
7011	0	32464	
7012	0	32652	
7013	0	32900	
7014	0	32900	
7015	0	32592	
7016	0	32548	
7017	0	32784	
7018	0	32700	
7019	0	32536	
7020	0	32548	
7021	0	32452	
7022	0	32568	
7023	0	32604	
7024	0	32532	
7025	0	32516	
7026	0	32304	
7027	0	32056	
7028	0	31880	
7029	0	31800	
7030	0	31744	
7031	0	31760	
7032	0	31860	
7033	0	32020	
7034	0	32092	
7035	0	32084	
7036	0	32164	
7037	0	32156	
7038	0	32060	
7039	0	32090	
7040	0	32084	
7041	0	32020	
7042	0	31968	
7043	0	31804	
7044	0	31528	
7045	0	31440	
7046	0	31492	
7047	0	31468	
7048	0	31420	
7049	0	31464	
7050	0	31584	
7051	0	31705	
7052	0	31840	
7053	0	31740	
7054	0	31684	
7055	0	31732	
7056	0	31748	
7057	0	31756	
7058	0	31688	
7059	0	31578	
7060	0	31824	
7061	0	32080	
7062	0	32196	
7063	0	32328	
7064	0	32416	
7065	0	32520	
7066	0	32660	
7067	0	32640	
7068	0	32564	
7069	0	32576	
7070	0	32698	
7071	0	32804	
7072	0	32888	
7073	0	33028	
7074	0	33140	
7075	0	33176	
7076	0	33200	
7077	0	33196	
7078	0	33148	
7079	0	33180	
7080	0	33216	
7081	0	33236	
7082	0	33216	
7083	0	33200	
7084	0	33244	
7085	0	33292	
7086	0	33273	
7087	0	33216	
7088	0	33198	
7089	0	33276	
7090	0	33348	
7091	0	33402	
7092	0	33440	
7093	0	33428	
7094	0	33424	
7095	0	33420	
7096	0	33380	
7097	0	33320	
7098	0	33324	
7099	0	33352	
7100	0	33412	
7101	0	33476	
7102	0	33572	
7103	0	33696	
7104	0	33708	
7105	0	33672	
7106	0	33584	
7107	0	33404	
7108	0	33128	
7109	0	32920	
7110	0	32780	
7111	0	32740	
7112	0	32812	
7113	0	32832	
7114	0	32808	
7115	0	32808	
7116	0	32810	
7117	0	32806	
7118	0	32800	
7119	0	32856	
7120	0	32916	
7121	0	33016	
7122	0	33044	
7123	0	33028	
7124	0	33012	
7125	0	33120	
7126	0	33285	
7127	0	33064	
7128	0	32940	
7129	0	33018	
7130	0	33058	
7131	0	32984	
7132	0	32920	
7133	0	32996	
7134	0	33172	
7135	0	33204	
7136	0	33076	
7137	0	33080	
7138	0	33140	
7139	0	33056	
7140	0	33056	
7141	0	33050	
7142	0	33008	
7143	0	32936	
7144	0	32904	
7145	0	32880	
7146	0	32876	
7147	0	32932	
7148	0	33040	
7149	0	33144	
7150	0	33120	
7151	0	33008	
7152	0	33028	
7153	0	32988	
7154	0	32884	
7155	0	32796	
7156	0	32788	
7157	0	32864	
7158	0	33024	
7159	0	32976	
7160	0	32924	
7161	0	32920	
7162	0	33050	
7163	0	33120	
7164	0	33036	
7165	0	33016	
7166	0	33272	
7167	0	33476	
7168	0	33310	
7169	0	33192	
7170	0	33164	
7171	0	33080	
7172	0	33018	
7173	0	32944	
7174	0	32968	
7175	0	32996	
7176	0	32944	
7177	0	32940	
7178	0	32956	
7179	0	33056	
7180	0	33072	
7181	0	32952	
7182	0	32864	
7183	0	32888	
7184	0	32948	
7185	0	32888	
7186	0	32948	
7187	0	33016	
7188	0	32976	
7189	0	32960	
7190	0	32932	
7191	0	32896	
7192	0	32992	
7193	0	33000	
7194	0	32832	
7195	0	32712	
7196	0	32648	
7197	0	32628	
7198	0	32668	
7199	0	32840	
7200	0	33136	
7201	0	33176	
7202	0	33080	
7203	0	33141	
7204	0	33296	
7205	0	33240	
7206	0	33200	
7207	0	33424	
7208	0	33540	
7209	0	33524	
7210	0	33572	
7211	0	33600	
7212	0	33576	
7213	0	33572	
7214	0	33616	
7215	0	33544	
7216	0	33336	
7217	0	33136	
7218	0	33076	
7219	0	33088	
7220	0	33124	
7221	0	33237	
7222	0	33256	
7223	0	33216	
7224	0	33148	
7225	0	33024	
7226	0	33036	
7227	0	33184	
7228	0	33200	
7229	0	33108	
7230	0	33096	
7231	0	33208	
7232	0	33364	
7233	0	33505	
7234	0	33748	
7235	0	33820	
7236	0	33688	
7237	0	33500	
7238	0	33376	
7239	0	33390	
7240	0	33428	
7241	0	33436	
7242	0	33505	
7243	0	33352	
7244	0	33352	
7245	0	33468	
7246	0	33360	
7247	0	33372	
7248	0	33564	
7249	0	33736	
7250	0	33688	
7251	0	33652	
7252	0	33640	
7253	0	33664	
7254	0	33752	
7255	0	33960	
7256	0	34056	
7257	0	34120	
7258	0	34276	
7259	0	34280	
7260	0	34152	
7261	0	33954	
7262	0	33784	
7263	0	33680	
7264	0	33520	
7265	0	33336	
7266	0	33302	
7267	0	33320	
7268	0	33456	
7269	0	33468	
7270	0	33460	
7271	0	33512	
7272	0	33450	
7273	0	33368	
7274	0	33316	
7275	0	33328	
7276	0	33288	
7277	0	33364	
7278	0	33476	
7279	0	33552	
7280	0	33516	
7281	0	33464	
7282	0	33448	
7283	0	33372	
7284	0	33324	
7285	0	33408	
7286	0	33488	
7287	0	33488	
7288	0	33560	
7289	0	33704	
7290	0	33672	
7291	0	33528	
7292	0	33564	
7293	0	33676	
7294	0	33724	
7295	0	33784	
7296	0	33844	
7297	0	33844	
7298	0	33868	
7299	0	33868	
7300	0	33720	
7301	0	33620	
7302	0	33476	
7303	0	33304	
7304	0	33116	
7305	0	33164	
7306	0	33268	
7307	0	33376	
7308	0	33528	
7309	0	33676	
7310	0	33732	
7311	0	33784	
7312	0	33746	
7313	0	33492	
7314	0	33400	
7315	0	33398	
7316	0	33444	
7317	0	33508	
7318	0	33448	
7319	0	33464	
7320	0	33472	
7321	0	33408	
7322	0	33372	
7323	0	33380	
7324	0	33416	
7325	0	33416	
7326	0	33464	
7327	0	33460	
7328	0	33524	
7329	0	33536	
7330	0	33460	
7331	0	33432	
7332	0	33440	
7333	0	33560	
7334	0	33504	
7335	0	33392	
7336	0	33284	
7337	0	33152	
7338	0	33108	
7339	0	33064	
7340	0	33092	
7341	0	33120	
7342	0	33136	
7343	0	33124	
7344	0	32912	
7345	0	32792	
7346	0	32876	
7347	0	33024	
7348	0	33096	
7349	0	33188	
7350	0	33328	
7351	0	33176	
7352	0	33088	
7353	0	33008	
7354	0	32884	
7355	0	32528	
7356	0	32164	
7357	0	31848	
7358	0	31576	
7359	0	31320	
7360	0	31178	
7361	0	31244	
7362	0	31428	
7363	0	31236	
7364	0	30984	
7365	0	30860	
7366	0	30762	
7367	0	30696	
7368	0	30456	
7369	0	30232	
7370	0	30100	
7371	0	30116	
7372	0	30024	
7373	0	29908	
7374	0	29968	
7375	0	29992	
7376	0	29936	
7377	0	29996	
7378	0	29960	
7379	0	29860	
7380	0	29908	
7381	0	30116	
7382	0	30361	
7383	0	30560	
7384	0	30276	
7385	0	29940	
7386	0	29548	
7387	0	29288	
7388	0	28988	
7389	0	28660	
7390	0	28400	
7391	0	28172	
7392	0	28076	
7393	0	28096	
7394	0	27996	
7395	0	28004	
7396	0	27824	
7397	0	27688	
7398	0	27752	
7399	0	27904	
7400	0	28180	
7401	0	28752	
7402	0	29168	
7403	0	29612	
7404	0	30024	
7405	0	30152	
7406	0	30288	
7407	0	30516	
7408	0	30664	
7409	0	30848	
7410	0	31028	
7411	0	31204	
7412	0	31444	
7413	0	31604	
7414	0	31872	
7415	0	31980	
7416	0	32184	
7417	0	32468	
7418	0	32668	
7419	0	32764	
7420	0	32910	
7421	0	33072	
7422	0	33136	
7423	0	33040	
7424	0	32928	
7425	0	32924	
7426	0	32820	
7427	0	32802	
7428	0	32988	
7429	0	33212	
7430	0	33402	
7431	0	33580	
7432	0	33764	
7433	0	33924	
7434	0	33972	
7435	0	34144	
7436	0	34464	
7437	0	34556	
7438	0	34656	
7439	0	34680	
7440	0	34592	
7441	0	34492	
7442	0	34544	
7443	0	34696	
7444	0	34756	
7445	0	35056	
7446	0	35280	
7447	0	35320	
7448	0	35188	
7449	0	35108	
7450	0	35012	
7451	0	34972	
7452	0	35128	
7453	0	35240	
7454	0	35220	
7455	0	35244	
7456	0	35244	
7457	0	35408	
7458	0	35504	
7459	0	35428	
7460	0	35388	
7461	0	35320	
7462	0	35236	
7463	0	35164	
7464	0	35016	
7465	0	34956	
7466	0	34916	
7467	0	34784	
7468	0	34696	
7469	0	34692	
7470	0	34676	
7471	0	34652	
7472	0	34644	
7473	0	34720	
7474	0	34672	
7475	0	34668	
7476	0	34508	
7477	0	34564	
7478	0	34476	
7479	0	34300	
7480	0	34320	
7481	0	34364	
7482	0	34520	
7483	0	34680	
7484	0	34912	
7485	0	35196	
7486	0	35540	
7487	0	35942	
7488	0	36400	
7489	0	36748	
7490	0	36888	
7491	0	36960	
7492	0	36812	
7493	0	36616	
7494	0	36256	
7495	0	35460	
7496	0	34568	
7497	0	33624	
7498	0	32490	
7499	0	31304	
7500	0	29832	
7501	0	28160	
7502	0	26308	
7503	0	24460	
7504	0	22312	
7505	0	20120	
7506	0	18088	
7507	0	16044	
7508	0	13846	
7509	0	11492	
7510	0	9260	
7511	0	7156	
7512	0	5344	
7513	0	3705	
7514	0	2856	
7515	0	2628	
7516	0	3265	
7517	0	4472	
7518	0	6485	
7519	0	9518	
7520	0	13632	
7521	0	17768	
7522	0	21040	
7523	0	24060	
7524	0	27144	
7525	0	30401	
7526	0	33952	
7527	0	37572	
7528	0	41076	
7529	0	43972	
7530	0	46152	
7531	0	48124	
7532	0	49940	
7533	0	51376	
7534	0	52356	
7535	0	52636	
7536	0	52184	
7537	0	51588	
7538	0	51128	
7539	0	50560	
7540	0	49456	
7541	0	48024	
7542	0	46304	
7543	0	44624	
7544	0	42896	
7545	0	41384	
7546	0	40168	
7547	0	39244	
7548	0	38632	
7549	0	38164	
7550	0	37772	
7551	0	37456	
7552	0	37244	
7553	0	36914	
7554	0	36808	
7555	0	36656	
7556	0	36192	
7557	0	35796	
7558	0	35480	
7559	0	35056	
7560	0	34836	
7561	0	34832	
7562	0	34988	
7563	0	35156	
7564	0	35196	
7565	0	35232	
7566	0	35144	
7567	0	35044	
7568	0	35084	
7569	0	35160	
7570	0	35253	
7571	0	35274	
7572	0	35268	
7573	0	35280	
7574	0	35236	
7575	0	35288	
7576	0	35308	
7577	0	34912	
7578	0	34708	
7579	0	34884	
7580	0	34832	
7581	0	34812	
7582	0	34634	
7583	0	34500	
7584	0	34512	
7585	0	34544	
7586	0	34520	
7587	0	34552	
7588	0	34592	
7589	0	34644	
7590	0	34624	
7591	0	34544	
7592	0	34468	
7593	0	34346	
7594	0	34176	
7595	0	34208	
7596	0	34200	
7597	0	34164	
7598	0	34112	
7599	0	34114	
7600	0	34184	
7601	0	34224	
7602	0	34332	
7603	0	34372	
7604	0	34220	
7605	0	34174	
7606	0	34192	
7607	0	34168	
7608	0	34040	
7609	0	33896	
7610	0	33740	
7611	0	33644	
7612	0	33612	
7613	0	33700	
7614	0	33812	
7615	0	33748	
7616	0	33672	
7617	0	33600	
7618	0	33556	
7619	0	33444	
7620	0	33348	
7621	0	33200	
7622	0	33172	
7623	0	33268	
7624	0	33160	
7625	0	33180	
7626	0	33168	
7627	0	33152	
7628	0	33176	
7629	0	33208	
7630	0	33336	
7631	0	33176	
7632	0	33144	
7633	0	33100	
7634	0	33072	
7635	0	33004	
7636	0	33000	
7637	0	32844	
7638	0	32792	
7639	0	33024	
7640	0	32960	
7641	0	32704	
7642	0	32516	
7643	0	32364	
7644	0	32344	
7645	0	32360	
7646	0	32552	
7647	0	32736	
7648	0	32884	
7649	0	32748	
7650	0	32792	
7651	0	32776	
7652	0	32590	
7653	0	32376	
7654	0	32220	
7655	0	32312	
7656	0	32380	
7657	0	32376	
7658	0	32373	
7659	0	32308	
7660	0	32216	
7661	0	32136	
7662	0	32136	
7663	0	32092	
7664	0	32012	
7665	0	32080	
7666	0	31952	
7667	0	31768	
7668	0	31794	
7669	0	31864	
7670	0	31692	
7671	0	31492	
7672	0	31452	
7673	0	31408	
7674	0	31432	
7675	0	31560	
7676	0	31760	
7677	0	31856	
7678	0	31952	
7679	0	31874	
7680	0	31688	
7681	0	31576	
7682	0	31540	
7683	0	31648	
7684	0	31708	
7685	0	31468	
7686	0	31324	
7687	0	31452	
7688	0	31776	
7689	0	31836	
7690	0	31784	
7691	0	31713	
7692	0	31752	
7693	0	31848	
7694	0	31916	
7695	0	31852	
7696	0	31720	
7697	0	31648	
7698	0	31680	
7699	0	31736	
7700	0	31852	
7701	0	31904	
7702	0	31792	
7703	0	31988	
7704	0	32352	
7705	0	32492	
7706	0	32676	
7707	0	32872	
7708	0	32902	
7709	0	32708	
7710	0	32560	
7711	0	32472	
7712	0	32300	
7713	0	32196	
7714	0	32184	
7715	0	32188	
7716	0	32152	
7717	0	32164	
7718	0	32264	
7719	0	32356	
7720	0	32480	
7721	0	32568	
7722	0	32484	
7723	0	32472	
7724	0	32490	
7725	0	32300	
7726	0	32244	
7727	0	32268	
7728	0	32216	
7729	0	32256	
7730	0	32324	
7731	0	32254	
7732	0	32232	
7733	0	32312	
7734	0	32376	
7735	0	32560	
7736	0	32776	
7737	0	32788	
7738	0	32756	
7739	0	32788	
7740	0	32784	
7741	0	32788	
7742	0	32640	
7743	0	32476	
7744	0	32316	
7745	0	32176	
7746	0	32172	
7747	0	32012	
7748	0	31944	
7749	0	31864	
7750	0	31816	
7751	0	31928	
7752	0	32068	
7753	0	32044	
7754	0	31780	
7755	0	31840	
7756	0	32152	
7757	0	32344	
7758	0	32452	
7759	0	32460	
7760	0	32332	
7761	0	32272	
7762	0	32180	
7763	0	32314	
7764	0	32428	
7765	0	32100	
7766	0	31952	
7767	0	31906	
7768	0	31928	
7769	0	32072	
7770	0	32088	
7771	0	32100	
7772	0	32180	
7773	0	32192	
7774	0	32152	
7775	0	32116	
7776	0	32176	
7777	0	32452	
7778	0	32612	
7779	0	32516	
7780	0	32584	
7781	0	32748	
7782	0	32948	
7783	0	33144	
7784	0	33016	
7785	0	32978	
7786	0	32984	
7787	0	32956	
7788	0	32732	
7789	0	32698	
7790	0	32732	
7791	0	32772	
7792	0	32728	
7793	0	32656	
7794	0	32752	
7795	0	32932	
7796	0	33088	
7797	0	33156	
7798	0	33332	
7799	0	33322	
7800	0	33330	
7801	0	33420	
7802	0	33320	
7803	0	33268	
7804	0	33320	
7805	0	33304	
7806	0	33148	
7807	0	33024	
7808	0	33040	
7809	0	33304	
7810	0	33612	
7811	0	33696	
7812	0	33624	
7813	0	33668	
7814	0	33936	
7815	0	34008	
7816	0	33980	
7817	0	33636	
7818	0	33376	
7819	0	33277	
7820	0	33140	
7821	0	32948	
7822	0	32896	
7823	0	33076	
7824	0	33096	
7825	0	33000	
7826	0	33008	
7827	0	33096	
7828	0	33208	
7829	0	33272	
7830	0	33280	
7831	0	33388	
7832	0	33580	
7833	0	33756	
7834	0	33604	
7835	0	33240	
7836	0	32992	
7837	0	32860	
7838	0	32668	
7839	0	32696	
7840	0	32946	
7841	0	32820	
7842	0	32664	
7843	0	32706	
7844	0	32816	
7845	0	32860	
7846	0	32876	
7847	0	32824	
7848	0	32738	
7849	0	32948	
7850	0	33008	
7851	0	32932	
7852	0	33012	
7853	0	32968	
7854	0	32784	
7855	0	32736	
7856	0	32809	
7857	0	32824	
7858	0	32760	
7859	0	32752	
7860	0	32812	
7861	0	32820	
7862	0	32880	
7863	0	32968	
7864	0	32952	
7865	0	32756	
7866	0	32544	
7867	0	32536	
7868	0	32588	
7869	0	32652	
7870	0	32572	
7871	0	32572	
7872	0	32704	
7873	0	32948	
7874	0	33112	
7875	0	33088	
7876	0	32852	
7877	0	32660	
7878	0	32556	
7879	0	32456	
7880	0	32432	
7881	0	32604	
7882	0	32796	
7883	0	32864	
7884	0	32920	
7885	0	33000	
7886	0	32912	
7887	0	32908	
7888	0	33166	
7889	0	33214	
7890	0	33024	
7891	0	32928	
7892	0	32872	
7893	0	32832	
7894	0	32808	
7895	0	32864	
7896	0	32824	
7897	0	32740	
7898	0	32736	
7899	0	32632	
7900	0	32516	
7901	0	32610	
7902	0	32568	
7903	0	32680	
7904	0	32744	
7905	0	32648	
7906	0	32512	
7907	0	32628	
7908	0	32684	
7909	0	32560	
7910	0	32608	
7911	0	32904	
7912	0	33232	
7913	0	33112	
7914	0	33040	
7915	0	33028	
7916	0	33064	
7917	0	33080	
7918	0	33144	
7919	0	33376	
7920	0	33412	
7921	0	33276	
7922	0	33248	
7923	0	33128	
7924	0	33024	
7925	0	33010	
7926	0	32909	
7927	0	32868	
7928	0	32936	
7929	0	32904	
7930	0	32824	
7931	0	32864	
7932	0	33160	
7933	0	33184	
7934	0	33104	
7935	0	33050	
7936	0	32964	
7937	0	32956	
7938	0	33108	
7939	0	33312	
7940	0	33452	
7941	0	33740	
7942	0	33700	
7943	0	33560	
7944	0	33552	
7945	0	33556	
7946	0	33397	
7947	0	33388	
7948	0	33376	
7949	0	33084	
7950	0	32984	
7951	0	33196	
7952	0	33404	
7953	0	33476	
7954	0	33316	
7955	0	33260	
7956	0	33152	
7957	0	33148	
7958	0	33128	
7959	0	33068	
7960	0	33121	
7961	0	33344	
7962	0	33344	
7963	0	33088	
7964	0	33076	
7965	0	33280	
7966	0	33352	
7967	0	33296	
7968	0	33162	
7969	0	32988	
7970	0	33040	
7971	0	33220	
7972	0	33120	
7973	0	33060	
7974	0	32992	
7975	0	33080	
7976	0	33140	
7977	0	33148	
7978	0	33032	
7979	0	33248	
7980	0	33444	
7981	0	33232	
7982	0	32984	
7983	0	33012	
7984	0	33050	
7985	0	33057	
7986	0	33144	
7987	0	33120	
7988	0	33128	
7989	0	33104	
7990	0	33060	
7991	0	32944	
7992	0	32916	
7993	0	32928	
7994	0	33114	
7995	0	33372	
7996	0	33304	
7997	0	33248	
7998	0	33332	
7999	0	33312	
8000	0	32920	
8001	0	32772	
8002	0	32752	
8003	0	32812	
8004	0	32972	
8005	0	33184	
8006	0	33328	
8007	0	33308	
8008	0	33200	
8009	0	33188	
8010	0	33248	
8011	0	33220	
8012	0	33056	
8013	0	33008	
8014	0	32920	
8015	0	32866	
8016	0	32852	
8017	0	32824	
8018	0	32548	
8019	0	32580	
8020	0	32736	
8021	0	32896	
8022	0	32884	
8023	0	32902	
8024	0	33044	
8025	0	33112	
8026	0	33132	
8027	0	33076	
